Data from Absorbance__1__15-07-24-385.txt Node

Date: Thu Apr 28 15:07:24 CEST 2022
User: jeppe
Spectrometer: FLMS06037
Trigger mode: 0
Integration Time (sec): 8,500000E-2
Scans to average: 10
Electric dark correction enabled: true
Nonlinearity correction enabled: false
Boxcar width: 0
XAxis mode: Wavelengths
Number of Pixels in Spectrum: 2048
>>>>>Begin Spectral Data<<<<<
187,642	-1,04
188,109	-1,04
188,576	-1,04
189,043	0,09
189,51	-0,22
189,976	0,25
190,443	0,13
190,91	-0
191,376	-1,6
191,843	-0
192,309	-0
192,776	0,05
193,242	-0,34
193,708	-0,06
194,175	-0
194,641	0,95
195,107	-0,1
195,573	-0,03
196,039	-0
196,505	-0,11
196,971	-0
197,437	-0
197,903	-0,36
198,369	1,06
198,835	0,6
199,301	0,74
199,766	0,62
200,232	0,9
200,698	0,78
201,163	1,08
201,629	1,11
202,094	1,2
202,56	1,01
203,025	0,74
203,49	0,64
203,956	0,94
204,421	0,69
204,886	0,74
205,351	0,94
205,816	0,8
206,281	0,67
206,746	1,02
207,211	0,75
207,676	0,79
208,141	0,69
208,606	0,73
209,071	0,72
209,536	0,79
210	0,75
210,465	0,87
210,929	0,8
211,394	0,78
211,859	1,02
212,323	0,83
212,787	0,93
213,252	1,03
213,716	0,88
214,18	0,93
214,645	1,1
215,109	1,13
215,573	1,05
216,037	1,03
216,501	1,1
216,965	1,52
217,429	1,21
217,893	1,43
218,357	1,46
218,82	1,51
219,284	1,41
219,748	1,67
220,211	1,81
220,675	1,9
221,139	1,77
221,602	1,85
222,066	2,03
222,529	2,07
222,992	1,92
223,456	2,21
223,919	1,91
224,382	2,09
224,845	2,12
225,308	2,09
225,772	2,53
226,235	2,56
226,698	2,4
227,16	2,2
227,623	2,46
228,086	2,21
228,549	2,29
229,012	2,12
229,474	2,24
229,937	2,21
230,4	2,42
230,862	2,38
231,325	2,62
231,787	2,42
232,25	2,26
232,712	2,21
233,174	2,31
233,637	2,2
234,099	2,24
234,561	2,3
235,023	2,41
235,485	2,13
235,947	2,33
236,409	2,24
236,871	2,34
237,333	2,27
237,795	2,44
238,257	2,38
238,718	2,38
239,18	2,28
239,642	2,53
240,103	2,45
240,565	2,36
241,026	2,26
241,488	2,49
241,949	2,47
242,411	2,21
242,872	2,27
243,333	2,29
243,795	2,41
244,256	2,34
244,717	2,21
245,178	2,21
245,639	2,44
246,1	2,25
246,561	2,31
247,022	2,31
247,483	2,4
247,943	2,46
248,404	2,4
248,865	2,22
249,325	2,43
249,786	2,26
250,247	2,41
250,707	2,36
251,168	2,57
251,628	2,29
252,088	2,25
252,549	2,39
253,009	2,3
253,469	2,27
253,929	2,36
254,389	2,41
254,849	2,87
255,309	2,42
255,769	2,32
256,229	2,42
256,689	2,33
257,149	2,4
257,609	2,43
258,069	2,68
258,528	2,61
258,988	2,38
259,448	2,31
259,907	2,45
260,367	2,38
260,826	2,76
261,285	2,46
261,745	2,36
262,204	2,43
262,663	2,36
263,122	2,37
263,582	2,3
264,041	2,35
264,5	2,52
264,959	2,37
265,418	2,24
265,877	2,26
266,336	2,37
266,794	2,35
267,253	2,59
267,712	2,57
268,171	2,63
268,629	2,44
269,088	2,49
269,546	2,69
270,005	2,45
270,463	2,64
270,922	2,33
271,38	2,4
271,838	2,29
272,296	2,43
272,755	2,46
273,213	2,49
273,671	2,4
274,129	2,35
274,587	2,46
275,045	2,44
275,503	2,19
275,961	2,52
276,418	2,22
276,876	2,43
277,334	2,37
277,791	2,52
278,249	2,4
278,707	2,29
279,164	2,37
279,622	2,36
280,079	2,38
280,536	2,3
280,994	2,46
281,451	2,35
281,908	2,39
282,365	2,31
282,822	2,34
283,28	2,25
283,737	2,39
284,193	2,23
284,65	2,45
285,107	2,26
285,564	2,28
286,021	2,16
286,478	2,11
286,934	2,06
287,391	2,01
287,848	2,05
288,304	1,95
288,761	1,9
289,217	1,92
289,673	1,85
290,13	1,79
290,586	1,75
291,042	1,68
291,498	1,62
291,955	1,58
292,411	1,55
292,867	1,48
293,323	1,45
293,779	1,4
294,235	1,34
294,69	1,32
295,146	1,28
295,602	1,22
296,058	1,18
296,513	1,15
296,969	1,11
297,424	1,07
297,88	1,03
298,335	0,99
298,791	0,96
299,246	0,93
299,701	0,89
300,157	0,86
300,612	0,84
301,067	0,81
301,522	0,78
301,977	0,75
302,432	0,72
302,887	0,7
303,342	0,67
303,797	0,65
304,252	0,63
304,707	0,6
305,161	0,58
305,616	0,57
306,071	0,55
306,525	0,53
306,98	0,51
307,434	0,49
307,889	0,48
308,343	0,46
308,797	0,45
309,252	0,43
309,706	0,42
310,16	0,41
310,614	0,39
311,068	0,38
311,522	0,37
311,976	0,36
312,43	0,35
312,884	0,34
313,338	0,32
313,792	0,32
314,245	0,31
314,699	0,3
315,153	0,29
315,606	0,29
316,06	0,28
316,513	0,27
316,967	0,26
317,42	0,25
317,873	0,25
318,327	0,24
318,78	0,24
319,233	0,23
319,686	0,23
320,139	0,22
320,592	0,22
321,045	0,21
321,498	0,21
321,951	0,2
322,404	0,2
322,857	0,2
323,31	0,19
323,762	0,19
324,215	0,19
324,667	0,19
325,12	0,18
325,573	0,17
326,025	0,17
326,477	0,17
326,93	0,17
327,382	0,17
327,834	0,17
328,286	0,16
328,739	0,16
329,191	0,16
329,643	0,16
330,095	0,15
330,547	0,15
330,999	0,15
331,45	0,15
331,902	0,15
332,354	0,14
332,806	0,14
333,257	0,14
333,709	0,14
334,16	0,14
334,612	0,14
335,063	0,14
335,515	0,14
335,966	0,14
336,417	0,13
336,869	0,13
337,32	0,13
337,771	0,13
338,222	0,13
338,673	0,13
339,124	0,13
339,575	0,13
340,026	0,13
340,477	0,13
340,928	0,12
341,378	0,12
341,829	0,12
342,28	0,12
342,73	0,12
343,181	0,13
343,631	0,12
344,082	0,12
344,532	0,13
344,982	0,12
345,433	0,12
345,883	0,12
346,333	0,12
346,783	0,12
347,233	0,12
347,683	0,12
348,133	0,12
348,583	0,12
349,033	0,12
349,483	0,12
349,933	0,12
350,383	0,12
350,832	0,12
351,282	0,12
351,732	0,12
352,181	0,11
352,631	0,11
353,08	0,11
353,529	0,11
353,979	0,12
354,428	0,11
354,877	0,11
355,327	0,11
355,776	0,11
356,225	0,11
356,674	0,11
357,123	0,12
357,572	0,11
358,021	0,11
358,469	0,11
358,918	0,11
359,367	0,11
359,816	0,11
360,264	0,11
360,713	0,11
361,161	0,11
361,61	0,11
362,058	0,11
362,507	0,1
362,955	0,11
363,403	0,11
363,852	0,1
364,3	0,11
364,748	0,11
365,196	0,11
365,644	0,11
366,092	0,11
366,54	0,11
366,988	0,11
367,436	0,11
367,883	0,1
368,331	0,1
368,779	0,1
369,226	0,1
369,674	0,1
370,121	0,1
370,569	0,1
371,016	0,09
371,464	0,1
371,911	0,1
372,358	0,1
372,805	0,1
373,253	0,1
373,7	0,1
374,147	0,1
374,594	0,1
375,041	0,1
375,488	0,1
375,935	0,1
376,381	0,1
376,828	0,1
377,275	0,1
377,721	0,1
378,168	0,1
378,615	0,1
379,061	0,1
379,508	0,1
379,954	0,09
380,4	0,1
380,847	0,1
381,293	0,1
381,739	0,09
382,185	0,1
382,631	0,1
383,077	0,09
383,523	0,1
383,969	0,09
384,415	0,09
384,861	0,1
385,307	0,1
385,752	0,1
386,198	0,1
386,644	0,09
387,089	0,09
387,535	0,1
387,98	0,1
388,426	0,09
388,871	0,09
389,317	0,09
389,762	0,1
390,207	0,09
390,652	0,09
391,097	0,09
391,542	0,09
391,987	0,09
392,432	0,09
392,877	0,09
393,322	0,09
393,767	0,09
394,212	0,09
394,656	0,1
395,101	0,1
395,546	0,09
395,99	0,09
396,435	0,09
396,879	0,09
397,324	0,09
397,768	0,09
398,212	0,09
398,657	0,09
399,101	0,09
399,545	0,09
399,989	0,09
400,433	0,09
400,877	0,09
401,321	0,09
401,765	0,09
402,209	0,09
402,653	0,09
403,096	0,09
403,54	0,09
403,984	0,09
404,427	0,09
404,871	0,09
405,314	0,09
405,758	0,09
406,201	0,09
406,644	0,09
407,088	0,09
407,531	0,08
407,974	0,09
408,417	0,09
408,86	0,09
409,303	0,08
409,746	0,08
410,189	0,08
410,632	0,09
411,075	0,08
411,517	0,09
411,96	0,08
412,403	0,08
412,845	0,09
413,288	0,08
413,73	0,09
414,173	0,09
414,615	0,08
415,058	0,09
415,5	0,08
415,942	0,08
416,384	0,08
416,826	0,08
417,268	0,08
417,711	0,08
418,152	0,08
418,594	0,08
419,036	0,09
419,478	0,08
419,92	0,08
420,362	0,09
420,803	0,09
421,245	0,09
421,686	0,08
422,128	0,08
422,569	0,09
423,011	0,08
423,452	0,09
423,893	0,08
424,335	0,09
424,776	0,08
425,217	0,08
425,658	0,08
426,099	0,08
426,54	0,09
426,981	0,08
427,422	0,08
427,863	0,08
428,304	0,08
428,744	0,08
429,185	0,08
429,626	0,08
430,066	0,08
430,507	0,08
430,947	0,08
431,388	0,08
431,828	0,08
432,268	0,08
432,709	0,08
433,149	0,08
433,589	0,08
434,029	0,08
434,469	0,08
434,909	0,08
435,349	0,08
435,789	0,09
436,229	0,08
436,669	0,08
437,108	0,08
437,548	0,08
437,988	0,08
438,427	0,08
438,867	0,08
439,306	0,08
439,746	0,08
440,185	0,08
440,624	0,08
441,064	0,08
441,503	0,08
441,942	0,08
442,381	0,08
442,82	0,08
443,259	0,08
443,698	0,08
444,137	0,08
444,576	0,09
445,015	0,08
445,453	0,08
445,892	0,08
446,331	0,08
446,769	0,08
447,208	0,07
447,646	0,08
448,085	0,07
448,523	0,08
448,961	0,08
449,4	0,08
449,838	0,08
450,276	0,08
450,714	0,08
451,152	0,08
451,59	0,08
452,028	0,08
452,466	0,07
452,904	0,08
453,342	0,08
453,779	0,08
454,217	0,07
454,655	0,08
455,092	0,07
455,53	0,08
455,967	0,08
456,405	0,08
456,842	0,08
457,279	0,08
457,717	0,08
458,154	0,08
458,591	0,07
459,028	0,08
459,465	0,07
459,902	0,08
460,339	0,08
460,776	0,08
461,213	0,08
461,65	0,07
462,086	0,07
462,523	0,08
462,96	0,08
463,396	0,07
463,833	0,08
464,269	0,07
464,706	0,07
465,142	0,08
465,578	0,07
466,015	0,08
466,451	0,08
466,887	0,07
467,323	0,07
467,759	0,08
468,195	0,08
468,631	0,07
469,067	0,07
469,503	0,07
469,939	0,08
470,374	0,07
470,81	0,07
471,246	0,07
471,681	0,08
472,117	0,07
472,552	0,07
472,988	0,07
473,423	0,08
473,858	0,07
474,294	0,08
474,729	0,08
475,164	0,08
475,599	0,07
476,034	0,07
476,469	0,07
476,904	0,07
477,339	0,07
477,774	0,07
478,208	0,07
478,643	0,07
479,078	0,07
479,512	0,07
479,947	0,07
480,381	0,07
480,816	0,07
481,25	0,07
481,685	0,07
482,119	0,07
482,553	0,07
482,987	0,07
483,421	0,07
483,856	0,07
484,29	0,07
484,724	0,07
485,157	0,07
485,591	0,07
486,025	0,07
486,459	0,07
486,893	0,07
487,326	0,07
487,76	0,07
488,193	0,07
488,627	0,07
489,06	0,07
489,494	0,07
489,927	0,07
490,36	0,07
490,794	0,07
491,227	0,07
491,66	0,07
492,093	0,07
492,526	0,07
492,959	0,07
493,392	0,07
493,825	0,07
494,257	0,07
494,69	0,07
495,123	0,07
495,555	0,07
495,988	0,07
496,421	0,07
496,853	0,07
497,285	0,06
497,718	0,06
498,15	0,07
498,582	0,07
499,015	0,06
499,447	0,07
499,879	0,06
500,311	0,06
500,743	0,07
501,175	0,06
501,607	0,07
502,038	0,07
502,47	0,07
502,902	0,07
503,334	0,07
503,765	0,07
504,197	0,07
504,628	0,07
505,06	0,07
505,491	0,07
505,922	0,07
506,354	0,07
506,785	0,07
507,216	0,06
507,647	0,07
508,078	0,07
508,509	0,07
508,94	0,07
509,371	0,06
509,802	0,07
510,233	0,06
510,664	0,07
511,094	0,07
511,525	0,07
511,955	0,07
512,386	0,06
512,816	0,07
513,247	0,07
513,677	0,07
514,108	0,07
514,538	0,06
514,968	0,07
515,398	0,07
515,828	0,07
516,258	0,07
516,688	0,07
517,118	0,07
517,548	0,07
517,978	0,07
518,408	0,07
518,837	0,07
519,267	0,07
519,697	0,07
520,126	0,07
520,556	0,06
520,985	0,07
521,415	0,07
521,844	0,07
522,273	0,07
522,702	0,07
523,132	0,07
523,561	0,07
523,99	0,07
524,419	0,07
524,848	0,07
525,277	0,07
525,705	0,07
526,134	0,07
526,563	0,07
526,992	0,07
527,42	0,07
527,849	0,07
528,277	0,07
528,706	0,07
529,134	0,07
529,563	0,07
529,991	0,07
530,419	0,07
530,847	0,07
531,275	0,07
531,703	0,07
532,131	0,07
532,559	0,07
532,987	0,07
533,415	0,07
533,843	0,07
534,271	0,07
534,698	0,07
535,126	0,07
535,554	0,07
535,981	0,07
536,409	0,08
536,836	0,07
537,264	0,08
537,691	0,08
538,118	0,07
538,545	0,07
538,972	0,07
539,4	0,08
539,827	0,07
540,254	0,08
540,681	0,07
541,107	0,08
541,534	0,08
541,961	0,08
542,388	0,08
542,814	0,08
543,241	0,08
543,667	0,07
544,094	0,08
544,52	0,08
544,947	0,08
545,373	0,08
545,799	0,08
546,226	0,08
546,652	0,08
547,078	0,08
547,504	0,08
547,93	0,08
548,356	0,08
548,782	0,08
549,208	0,08
549,633	0,08
550,059	0,08
550,485	0,08
550,91	0,08
551,336	0,08
551,761	0,09
552,187	0,09
552,612	0,09
553,038	0,08
553,463	0,08
553,888	0,08
554,313	0,09
554,738	0,08
555,163	0,09
555,588	0,09
556,013	0,09
556,438	0,09
556,863	0,09
557,288	0,09
557,713	0,09
558,137	0,09
558,562	0,09
558,986	0,09
559,411	0,09
559,835	0,09
560,26	0,09
560,684	0,09
561,108	0,09
561,533	0,1
561,957	0,09
562,381	0,09
562,805	0,1
563,229	0,09
563,653	0,1
564,077	0,1
564,501	0,1
564,925	0,1
565,348	0,1
565,772	0,1
566,196	0,1
566,619	0,1
567,043	0,1
567,466	0,1
567,89	0,1
568,313	0,1
568,736	0,1
569,159	0,1
569,583	0,1
570,006	0,11
570,429	0,11
570,852	0,11
571,275	0,11
571,698	0,11
572,12	0,11
572,543	0,11
572,966	0,11
573,389	0,11
573,811	0,11
574,234	0,11
574,656	0,11
575,079	0,11
575,501	0,11
575,924	0,12
576,346	0,11
576,768	0,12
577,19	0,12
577,612	0,12
578,034	0,12
578,456	0,12
578,878	0,12
579,3	0,12
579,722	0,12
580,144	0,12
580,566	0,13
580,987	0,13
581,409	0,12
581,83	0,13
582,252	0,13
582,673	0,13
583,095	0,13
583,516	0,13
583,937	0,13
584,359	0,13
584,78	0,14
585,201	0,14
585,622	0,13
586,043	0,14
586,464	0,14
586,885	0,14
587,306	0,14
587,726	0,14
588,147	0,14
588,568	0,14
588,988	0,15
589,409	0,15
589,83	0,15
590,25	0,15
590,67	0,15
591,091	0,15
591,511	0,15
591,931	0,16
592,351	0,16
592,771	0,16
593,192	0,16
593,612	0,16
594,031	0,16
594,451	0,16
594,871	0,16
595,291	0,17
595,711	0,17
596,13	0,17
596,55	0,17
596,969	0,17
597,389	0,17
597,808	0,17
598,228	0,18
598,647	0,18
599,066	0,18
599,486	0,18
599,905	0,19
600,324	0,18
600,743	0,18
601,162	0,19
601,581	0,19
602	0,19
602,418	0,19
602,837	0,19
603,256	0,19
603,674	0,19
604,093	0,2
604,512	0,2
604,93	0,2
605,349	0,2
605,767	0,2
606,185	0,21
606,603	0,21
607,022	0,21
607,44	0,21
607,858	0,21
608,276	0,21
608,694	0,22
609,112	0,22
609,53	0,22
609,947	0,22
610,365	0,22
610,783	0,22
611,2	0,22
611,618	0,23
612,036	0,23
612,453	0,23
612,87	0,23
613,288	0,24
613,705	0,24
614,122	0,24
614,539	0,24
614,957	0,25
615,374	0,25
615,791	0,25
616,208	0,25
616,624	0,25
617,041	0,26
617,458	0,26
617,875	0,26
618,291	0,26
618,708	0,27
619,125	0,26
619,541	0,27
619,958	0,27
620,374	0,27
620,79	0,27
621,206	0,28
621,623	0,28
622,039	0,28
622,455	0,29
622,871	0,29
623,287	0,29
623,703	0,29
624,119	0,29
624,535	0,3
624,95	0,3
625,366	0,3
625,782	0,31
626,197	0,31
626,613	0,31
627,028	0,31
627,444	0,31
627,859	0,32
628,274	0,32
628,69	0,32
629,105	0,33
629,52	0,33
629,935	0,34
630,35	0,34
630,765	0,34
631,18	0,34
631,595	0,35
632,009	0,35
632,424	0,35
632,839	0,35
633,253	0,36
633,668	0,36
634,082	0,36
634,497	0,37
634,911	0,37
635,326	0,37
635,74	0,37
636,154	0,38
636,568	0,38
636,982	0,38
637,396	0,39
637,81	0,39
638,224	0,39
638,638	0,4
639,052	0,4
639,466	0,4
639,879	0,41
640,293	0,41
640,707	0,41
641,12	0,41
641,534	0,42
641,947	0,42
642,36	0,43
642,774	0,42
643,187	0,42
643,6	0,44
644,013	0,44
644,426	0,44
644,839	0,44
645,252	0,45
645,665	0,45
646,078	0,46
646,491	0,46
646,904	0,46
647,316	0,47
647,729	0,47
648,141	0,47
648,554	0,47
648,966	0,49
649,379	0,48
649,791	0,49
650,203	0,5
650,615	0,49
651,028	0,5
651,44	0,5
651,852	0,51
652,264	0,52
652,676	0,52
653,087	0,52
653,499	0,52
653,911	0,53
654,323	0,54
654,734	0,53
655,146	0,54
655,557	0,54
655,969	0,55
656,38	0,55
656,792	0,56
657,203	0,56
657,614	0,57
658,025	0,57
658,436	0,57
658,847	0,58
659,258	0,58
659,669	0,58
660,08	0,59
660,491	0,59
660,902	0,6
661,312	0,6
661,723	0,61
662,134	0,61
662,544	0,62
662,955	0,62
663,365	0,62
663,775	0,63
664,186	0,63
664,596	0,64
665,006	0,64
665,416	0,65
665,826	0,65
666,236	0,65
666,646	0,66
667,056	0,67
667,466	0,67
667,876	0,67
668,286	0,68
668,695	0,68
669,105	0,69
669,514	0,69
669,924	0,69
670,333	0,7
670,743	0,7
671,152	0,71
671,561	0,72
671,97	0,72
672,38	0,72
672,789	0,73
673,198	0,73
673,607	0,74
674,016	0,74
674,424	0,75
674,833	0,75
675,242	0,76
675,651	0,77
676,059	0,77
676,468	0,77
676,876	0,77
677,285	0,78
677,693	0,79
678,101	0,79
678,51	0,8
678,918	0,8
679,326	0,81
679,734	0,81
680,142	0,82
680,55	0,81
680,958	0,82
681,366	0,83
681,774	0,83
682,181	0,84
682,589	0,84
682,997	0,85
683,404	0,85
683,812	0,86
684,219	0,86
684,627	0,87
685,034	0,87
685,441	0,88
685,848	0,89
686,256	0,9
686,663	0,9
687,07	0,9
687,477	0,91
687,884	0,9
688,29	0,92
688,697	0,92
689,104	0,93
689,511	0,92
689,917	0,94
690,324	0,94
690,73	0,94
691,137	0,95
691,543	0,95
691,95	0,97
692,356	0,96
692,762	0,98
693,168	0,97
693,574	0,98
693,98	0,99
694,386	1
694,792	1
695,198	1
695,604	1,01
696,01	1
696,415	1,02
696,821	1,02
697,227	1,03
697,632	1,03
698,038	1,04
698,443	1,05
698,848	1,05
699,254	1,06
699,659	1,05
700,064	1,07
700,469	1,06
700,874	1,07
701,279	1,06
701,684	1,07
702,089	1,08
702,494	1,1
702,898	1,1
703,303	1,11
703,708	1,11
704,112	1,11
704,517	1,11
704,921	1,12
705,326	1,14
705,73	1,14
706,134	1,14
706,538	1,14
706,943	1,14
707,347	1,17
707,751	1,15
708,155	1,16
708,559	1,17
708,963	1,18
709,366	1,17
709,77	1,19
710,174	1,19
710,577	1,19
710,981	1,19
711,384	1,2
711,788	1,22
712,191	1,22
712,595	1,22
712,998	1,21
713,401	1,22
713,804	1,23
714,207	1,24
714,61	1,22
715,013	1,24
715,416	1,25
715,819	1,25
716,222	1,26
716,625	1,26
717,027	1,27
717,43	1,27
717,833	1,27
718,235	1,3
718,638	1,27
719,04	1,28
719,442	1,28
719,844	1,3
720,247	1,32
720,649	1,31
721,051	1,32
721,453	1,31
721,855	1,33
722,257	1,31
722,659	1,35
723,06	1,35
723,462	1,37
723,864	1,34
724,265	1,37
724,667	1,35
725,069	1,36
725,47	1,38
725,871	1,39
726,273	1,37
726,674	1,37
727,075	1,37
727,476	1,39
727,877	1,39
728,278	1,41
728,679	1,41
729,08	1,39
729,481	1,41
729,882	1,42
730,282	1,42
730,683	1,43
731,084	1,45
731,484	1,44
731,885	1,44
732,285	1,46
732,686	1,44
733,086	1,44
733,486	1,46
733,886	1,46
734,286	1,5
734,686	1,47
735,086	1,48
735,486	1,48
735,886	1,47
736,286	1,49
736,686	1,52
737,086	1,49
737,485	1,52
737,885	1,51
738,284	1,51
738,684	1,54
739,083	1,54
739,482	1,52
739,882	1,51
740,281	1,52
740,68	1,54
741,079	1,55
741,478	1,53
741,877	1,56
742,276	1,54
742,675	1,56
743,074	1,58
743,473	1,57
743,871	1,58
744,27	1,56
744,668	1,54
745,067	1,58
745,465	1,59
745,864	1,57
746,262	1,57
746,66	1,57
747,059	1,6
747,457	1,63
747,855	1,61
748,253	1,65
748,651	1,64
749,049	1,62
749,447	1,65
749,844	1,61
750,242	1,6
750,64	1,63
751,037	1,68
751,435	1,64
751,832	1,63
752,23	1,66
752,627	1,62
753,024	1,68
753,422	1,62
753,819	1,64
754,216	1,67
754,613	1,66
755,01	1,65
755,407	1,67
755,804	1,65
756,201	1,67
756,597	1,64
756,994	1,68
757,391	1,7
757,787	1,69
758,184	1,72
758,58	1,71
758,977	1,68
759,373	1,67
759,769	1,72
760,166	1,67
760,562	1,69
760,958	1,71
761,354	1,75
761,75	1,72
762,146	1,69
762,542	1,76
762,937	1,72
763,333	1,67
763,729	1,71
764,124	1,73
764,52	1,74
764,915	1,72
765,311	1,74
765,706	1,78
766,101	1,72
766,497	1,75
766,892	1,77
767,287	1,74
767,682	1,78
768,077	1,75
768,472	1,74
768,867	1,71
769,262	1,74
769,657	1,77
770,051	1,75
770,446	1,77
770,84	1,76
771,235	1,73
771,629	1,8
772,024	1,76
772,418	1,79
772,812	1,72
773,207	1,74
773,601	1,85
773,995	1,8
774,389	1,78
774,783	1,81
775,177	1,79
775,571	1,8
775,964	1,81
776,358	1,79
776,752	1,82
777,145	1,76
777,539	1,75
777,932	1,74
778,326	1,87
778,719	1,84
779,113	1,75
779,506	1,83
779,899	1,83
780,292	1,77
780,685	1,78
781,078	1,81
781,471	1,82
781,864	1,82
782,257	1,81
782,65	1,89
783,042	1,76
783,435	1,81
783,827	1,85
784,22	1,79
784,612	1,81
785,005	1,83
785,397	1,8
785,789	1,77
786,182	1,84
786,574	1,86
786,966	1,85
787,358	1,79
787,75	1,89
788,142	1,9
788,534	1,84
788,925	1,85
789,317	1,83
789,709	1,83
790,1	1,8
790,492	1,82
790,883	1,85
791,275	1,85
791,666	1,98
792,057	1,81
792,449	1,86
792,84	1,87
793,231	1,8
793,622	1,79
794,013	1,88
794,404	1,79
794,795	1,85
795,185	1,91
795,576	1,81
795,967	1,84
796,357	1,84
796,748	1,88
797,138	1,88
797,529	1,84
797,919	1,89
798,31	1,88
798,7	1,89
799,09	1,87
799,48	1,87
799,87	1,8
800,26	1,84
800,65	1,89
801,04	1,83
801,43	1,82
801,82	1,88
802,209	1,82
802,599	1,83
802,988	1,81
803,378	1,88
803,767	1,87
804,157	1,84
804,546	1,93
804,935	1,83
805,325	1,81
805,714	1,94
806,103	1,85
806,492	1,89
806,881	1,88
807,27	1,88
807,658	1,86
808,047	1,87
808,436	1,82
808,824	1,85
809,213	1,84
809,602	1,95
809,99	1,8
810,378	1,87
810,767	1,83
811,155	1,84
811,543	1,87
811,931	1,81
812,319	1,88
812,708	1,81
813,095	1,89
813,483	1,83
813,871	1,89
814,259	1,84
814,647	1,89
815,034	1,86
815,422	1,87
815,809	1,88
816,197	1,87
816,584	1,82
816,972	1,8
817,359	1,9
817,746	1,79
818,133	1,88
818,52	1,99
818,907	1,9
819,294	1,9
819,681	1,83
820,068	1,97
820,455	1,97
820,842	1,86
821,228	1,88
821,615	1,82
822,002	1,84
822,388	1,94
822,774	1,84
823,161	1,9
823,547	1,86
823,933	1,86
824,319	1,84
824,706	1,91
825,092	1,78
825,478	1,87
825,863	1,91
826,249	1,84
826,635	1,81
827,021	1,83
827,407	1,84
827,792	1,8
828,178	1,76
828,563	1,8
828,949	1,84
829,334	1,75
829,719	1,75
830,104	1,91
830,49	1,79
830,875	1,78
831,26	1,79
831,645	1,86
832,03	1,79
832,415	1,79
832,799	1,78
833,184	1,86
833,569	1,84
833,953	1,84
834,338	1,79
834,722	1,9
835,107	1,89
835,491	1,77
835,875	1,83
836,26	1,75
836,644	1,83
837,028	1,87
837,412	1,8
837,796	1,78
838,18	1,91
838,564	1,76
838,948	1,9
839,331	1,73
839,715	1,8
840,099	1,86
840,482	1,79
840,866	1,77
841,249	1,83
841,632	1,82
842,016	1,79
842,399	1,84
842,782	1,73
843,165	1,89
843,548	1,8
843,931	1,82
844,314	1,86
844,697	1,89
845,08	1,86
845,463	1,83
845,845	1,84
846,228	1,76
846,61	1,78
846,993	1,84
847,375	1,83
847,758	1,84
848,14	1,76
848,522	1,75
848,904	1,75
849,286	1,76
849,668	1,83
850,05	1,79
850,432	1,83
850,814	1,68
851,196	1,75
851,578	1,78
851,959	1,87
852,341	1,74
852,722	1,76
853,104	1,73
853,485	1,85
853,867	1,88
854,248	1,76
854,629	1,77
855,01	1,77
855,391	1,81
855,773	1,73
856,153	1,78
856,534	1,82
856,915	1,74
857,296	1,78
857,677	1,85
858,057	1,91
858,438	1,73
858,819	1,72
859,199	1,75
859,579	1,71
859,96	1,83
860,34	1,79
860,72	1,75
861,1	1,77
861,48	1,75
861,86	1,68
862,24	1,72
862,62	1,75
863	1,75
863,38	1,7
863,76	1,84
864,139	1,73
864,519	1,69
864,898	1,79
865,278	1,65
865,657	1,69
866,037	1,68
866,416	1,67
866,795	1,68
867,174	1,74
867,553	1,72
867,932	1,77
868,311	1,75
868,69	1,73
869,069	1,69
869,448	1,73
869,826	1,67
870,205	1,6
870,584	1,66
870,962	1,77
871,341	1,78
871,719	1,81
872,097	1,68
872,475	1,7
872,854	1,67
873,232	1,73
873,61	1,78
873,988	1,76
874,366	1,74
874,744	1,73
875,121	1,84
875,499	1,65
875,877	1,63
876,255	1,79
876,632	1,74
877,01	1,81
877,387	1,69
877,764	1,67
878,142	1,73
878,519	1,68
878,896	1,67
879,273	1,67
879,65	1,64
880,027	1,62
880,404	1,64
880,781	1,71
881,158	1,72
881,534	1,6
881,911	1,7
882,288	1,61
882,664	1,67
883,041	1,69
883,417	1,68
883,793	1,61
884,17	1,7
884,546	1,71
884,922	1,67
885,298	1,61
885,674	1,65
886,05	1,72
886,426	1,6
886,802	1,67
887,178	1,69
887,553	1,62
887,929	1,64
888,305	1,67
888,68	1,64
889,056	1,59
889,431	1,67
889,806	1,64
890,182	1,64
890,557	1,58
890,932	1,59
891,307	1,58
891,682	1,74
892,057	1,66
892,432	1,62
892,807	1,59
893,181	1,65
893,556	1,65
893,931	1,64
894,305	1,66
894,68	1,65
895,054	1,59
895,428	1,66
895,803	1,65
896,177	1,6
896,551	1,62
896,925	1,65
897,299	1,63
897,673	1,58
898,047	1,52
898,421	1,6
898,795	1,67
899,169	1,68
899,542	1,62
899,916	1,63
900,289	1,55
900,663	1,53
901,036	1,55
901,41	1,6
901,783	1,51
902,156	1,61
902,529	1,61
902,902	1,58
903,275	1,58
903,648	1,53
904,021	1,54
904,394	1,53
904,767	1,58
905,139	1,63
905,512	1,59
905,885	1,63
906,257	1,59
906,629	1,57
907,002	1,65
907,374	1,52
907,746	1,55
908,119	1,57
908,491	1,56
908,863	1,46
909,235	1,55
909,607	1,59
909,978	1,48
910,35	1,47
910,722	1,52
911,094	1,5
911,465	1,43
911,837	1,49
912,208	1,62
912,58	1,56
912,951	1,5
913,322	1,56
913,693	1,57
914,065	1,59
914,436	1,46
914,807	1,54
915,178	1,52
915,548	1,58
915,919	1,6
916,29	1,48
916,661	1,59
917,031	1,51
917,402	1,62
917,772	1,66
918,143	1,56
918,513	1,48
918,884	1,51
919,254	1,54
919,624	1,56
919,994	1,47
920,364	1,53
920,734	1,51
921,104	1,5
921,474	1,44
921,844	1,61
922,213	1,59
922,583	1,48
922,953	1,48
923,322	1,51
923,692	1,51
924,061	1,55
924,43	1,44
924,8	1,48
925,169	1,5
925,538	1,4
925,907	1,66
926,276	1,54
926,645	1,43
927,014	1,37
927,383	1,49
927,751	1,53
928,12	1,51
928,489	1,43
928,857	1,46
929,226	1,42
929,594	1,59
929,962	1,48
930,331	1,5
930,699	1,42
931,067	1,57
931,435	1,52
931,803	1,5
932,171	1,42
932,539	1,42
932,907	1,41
933,275	1,5
933,642	1,52
934,01	1,42
934,378	1,6
934,745	1,52
935,113	1,5
935,48	1,36
935,847	1,39
936,215	1,42
936,582	1,41
936,949	1,41
937,316	1,53
937,683	1,4
938,05	1,32
938,417	1,38
938,783	1,5
939,15	1,36
939,517	1,3
939,883	1,62
940,25	1,49
940,616	1,49
940,983	1,49
941,349	1,28
941,715	1,52
942,082	1,48
942,448	1,39
942,814	1,41
943,18	1,28
943,546	1,47
943,912	1,45
944,277	1,46
944,643	1,64
945,009	1,49
945,374	1,41
945,74	1,41
946,105	1,5
946,471	1,36
946,836	1,27
947,202	1,32
947,567	1,47
947,932	1,38
948,297	1,28
948,662	1,46
949,027	1,42
949,392	1,23
949,757	1,36
950,121	1,33
950,486	1,21
950,851	1,16
951,215	1,72
951,58	1,46
951,944	1,39
952,309	1,24
952,673	1,63
953,037	1,37
953,401	1,33
953,765	1,27
954,129	1,46
954,493	1,53
954,857	1,58
955,221	1,38
955,585	1,25
955,949	1,26
956,312	1,35
956,676	1,33
957,039	2,04
957,403	1,24
957,766	1,33
958,13	1,36
958,493	1,43
958,856	1,24
959,219	1,14
959,582	1,35
959,945	1,37
960,308	1,81
960,671	1,27
961,034	1,75
961,396	1,77
961,759	1,33
962,122	1,39
962,484	1,09
962,847	1,2
963,209	1,19
963,571	1,4
963,934	1,71
964,296	1,3
964,658	1,11
965,02	1,25
965,382	1,26
965,744	1,11
966,106	1,26
966,468	1,21
966,829	1,17
967,191	1,12
967,553	-0
967,914	1,28
968,276	1,46
968,637	1,35
968,998	1,39
969,36	1,08
969,721	1,46
970,082	0,99
970,443	1,35
970,804	1,29
971,165	1,34
971,526	1,22
971,887	1,3
972,247	1,04
972,608	1,21
972,969	1,59
973,329	2,01
973,69	1,11
974,05	1,55
974,41	1,47
974,771	1,52
975,131	1,37
975,491	1,13
975,851	0,97
976,211	0,98
976,571	1,46
976,931	1,14
977,291	2,38
977,65	0,94
978,01	1,04
978,37	1,2
978,729	1,17
979,089	1
979,448	-0
979,807	2,14
980,167	1,1
980,526	1,04
980,885	1,27
981,244	-0
981,603	2,17
981,962	1,2
982,321	1,09
982,68	-0
983,038	0,95
983,397	0,85
983,756	1,02
984,114	1,29
984,473	1,03
984,831	1,29
985,19	1,37
985,548	1,32
985,906	1,28
986,264	1,34
986,622	0,92
986,98	1,88
987,338	1,02
987,696	1,69
988,054	1,25
988,412	0,84
988,769	1,23
989,127	1,14
989,484	1,05
989,842	-0
990,199	0,78
990,557	1,02
990,914	1,12
991,271	1,4
991,628	-0
991,985	-0
992,342	1,23
992,699	0,84
993,056	0,92
993,413	1,87
993,77	-0
994,126	-0
994,483	0,97
994,84	1,43
995,196	0,85
995,552	1,29
995,909	1
996,265	1,19
996,621	-0
996,977	1,6
997,333	0,77
997,689	3,13
998,045	-0
998,401	1,02
998,757	1,29
999,113	0,94
999,468	0,78
999,824	0,7
1000,18	0,88
1000,535	0,99
1000,89	-0
1001,246	-0
1001,601	1,83
1001,956	1,08
1002,311	-0
1002,666	0,91
1003,021	0,78
1003,376	0,79
1003,731	0,87
1004,086	0,68
1004,441	0,85
1004,795	-0
1005,15	-0
1005,505	1,51
1005,859	0,68
1006,213	0,94
1006,568	-0
1006,922	-0
1007,276	1,39
1007,63	0,78
1007,984	0,71
1008,338	1,28
1008,692	0,61
1009,046	1,44
1009,4	-0
1009,754	-0
1010,107	1,05
1010,461	1
1010,814	0,94
1011,168	1,68
1011,521	0,88
1011,874	0,86
1012,228	1,07
1012,581	-0
1012,934	0,78
1013,287	1,35
1013,64	1,15
1013,993	1,67
1014,346	1,32
1014,699	0,87
1015,051	2,49
1015,404	1,12
1015,756	0,93
1016,109	-0
1016,461	1,21
1016,814	-0
1017,166	-0
1017,518	-0
1017,87	0,65
1018,223	1,24
1018,575	1,1
1018,927	0,96
1019,278	-0
1019,63	0,81
1019,982	-0
1020,334	0,77
1020,685	0,83
1021,037	0,67
1021,388	0,98
1021,74	-0
1022,091	0,73
1022,442	0,86
1022,794	1,29
1023,145	1,75
1023,496	0,69
1023,847	0,98
1024,198	0,99
1024,549	-0
1024,9	-0
1025,25	0,81
1025,601	1,32
1025,952	0,89
1026,302	0,73
1026,653	-0
1027,003	-0
1027,353	-0
1027,704	1,24
1028,054	0,95
1028,404	-0
1028,754	1,08
1029,104	-0
1029,454	0,79
1029,804	-0
1030,154	-0
1030,503	-0
1030,853	-0
