Data from Absorbance__4__15-09-05-532.txt Node

Date: Thu Apr 28 15:09:05 CEST 2022
User: jeppe
Spectrometer: FLMS06037
Trigger mode: 0
Integration Time (sec): 8,500000E-2
Scans to average: 10
Electric dark correction enabled: true
Nonlinearity correction enabled: false
Boxcar width: 0
XAxis mode: Wavelengths
Number of Pixels in Spectrum: 2048
>>>>>Begin Spectral Data<<<<<
187,642	-1,21
188,109	-1,21
188,576	-1,21
189,043	0,48
189,51	-0,07
189,976	-0
190,443	-0,08
190,91	-0
191,376	-0
191,843	-0
192,309	0,51
192,776	0,52
193,242	-0,67
193,708	0,31
194,175	-0
194,641	-0,04
195,107	-0,2
195,573	-1,16
196,039	0,45
196,505	0,15
196,971	0,09
197,437	-0
197,903	-0
198,369	-0,01
198,835	0,04
199,301	0,03
199,766	0,04
200,232	0,04
200,698	0,06
201,163	0,06
201,629	0,02
202,094	0,07
202,56	0,05
203,025	0,04
203,49	0,06
203,956	0,03
204,421	0,09
204,886	0,02
205,351	0,06
205,816	0,02
206,281	0,05
206,746	0,07
207,211	0,09
207,676	0,05
208,141	0,04
208,606	0,04
209,071	0,04
209,536	0,04
210	0,02
210,465	0,04
210,929	0,03
211,394	0,04
211,859	0,05
212,323	0,03
212,787	0,06
213,252	0,06
213,716	0,05
214,18	0,04
214,645	0,05
215,109	0,08
215,573	0,06
216,037	0,03
216,501	0,05
216,965	0,06
217,429	0,05
217,893	0,07
218,357	0,04
218,82	0,05
219,284	0,04
219,748	0,06
220,211	0,05
220,675	0,05
221,139	0,05
221,602	0,05
222,066	0,04
222,529	0,05
222,992	0,05
223,456	0,04
223,919	0,05
224,382	0,04
224,845	0,04
225,308	0,04
225,772	0,04
226,235	0,04
226,698	0,04
227,16	0,04
227,623	0,04
228,086	0,04
228,549	0,04
229,012	0,04
229,474	0,04
229,937	0,04
230,4	0,04
230,862	0,04
231,325	0,03
231,787	0,03
232,25	0,04
232,712	0,03
233,174	0,03
233,637	0,03
234,099	0,03
234,561	0,03
235,023	0,03
235,485	0,03
235,947	0,03
236,409	0,03
236,871	0,03
237,333	0,03
237,795	0,03
238,257	0,03
238,718	0,03
239,18	0,02
239,642	0,03
240,103	0,02
240,565	0,02
241,026	0,02
241,488	0,03
241,949	0,03
242,411	0,02
242,872	0,03
243,333	0,02
243,795	0,03
244,256	0,02
244,717	0,03
245,178	0,02
245,639	0,02
246,1	0,03
246,561	0,03
247,022	0,02
247,483	0,02
247,943	0,03
248,404	0,02
248,865	0,02
249,325	0,02
249,786	0,02
250,247	0,02
250,707	0,02
251,168	0,02
251,628	0,02
252,088	0,03
252,549	0,03
253,009	0,02
253,469	0,02
253,929	0,02
254,389	0,02
254,849	0,02
255,309	0,02
255,769	0,03
256,229	0,02
256,689	0,02
257,149	0,02
257,609	0,02
258,069	0,02
258,528	0,02
258,988	0,02
259,448	0,02
259,907	0,02
260,367	0,02
260,826	0,02
261,285	0,02
261,745	0,02
262,204	0,02
262,663	0,02
263,122	0,02
263,582	0,02
264,041	0,02
264,5	0,02
264,959	0,02
265,418	0,02
265,877	0,02
266,336	0,02
266,794	0,02
267,253	0,02
267,712	0,02
268,171	0,02
268,629	0,02
269,088	0,02
269,546	0,02
270,005	0,02
270,463	0,02
270,922	0,02
271,38	0,02
271,838	0,02
272,296	0,02
272,755	0,02
273,213	0,02
273,671	0,02
274,129	0,02
274,587	0,02
275,045	0,02
275,503	0,03
275,961	0,02
276,418	0,02
276,876	0,02
277,334	0,02
277,791	0,02
278,249	0,02
278,707	0,02
279,164	0,02
279,622	0,02
280,079	0,02
280,536	0,02
280,994	0,02
281,451	0,02
281,908	0,02
282,365	0,02
282,822	0,02
283,28	0,02
283,737	0,02
284,193	0,02
284,65	0,02
285,107	0,02
285,564	0,02
286,021	0,03
286,478	0,02
286,934	0,02
287,391	0,02
287,848	0,02
288,304	0,02
288,761	0,02
289,217	0,02
289,673	0,02
290,13	0,02
290,586	0,02
291,042	0,02
291,498	0,02
291,955	0,02
292,411	0,02
292,867	0,02
293,323	0,02
293,779	0,02
294,235	0,02
294,69	0,02
295,146	0,02
295,602	0,02
296,058	0,02
296,513	0,03
296,969	0,02
297,424	0,02
297,88	0,02
298,335	0,02
298,791	0,02
299,246	0,02
299,701	0,02
300,157	0,02
300,612	0,02
301,067	0,02
301,522	0,02
301,977	0,02
302,432	0,02
302,887	0,02
303,342	0,02
303,797	0,02
304,252	0,02
304,707	0,02
305,161	0,02
305,616	0,02
306,071	0,02
306,525	0,02
306,98	0,02
307,434	0,02
307,889	0,02
308,343	0,02
308,797	0,02
309,252	0,02
309,706	0,02
310,16	0,02
310,614	0,01
311,068	0,02
311,522	0,02
311,976	0,02
312,43	0,02
312,884	0,02
313,338	0,02
313,792	0,02
314,245	0,02
314,699	0,01
315,153	0,02
315,606	0,02
316,06	0,01
316,513	0,01
316,967	0,02
317,42	0,02
317,873	0,02
318,327	0,02
318,78	0,02
319,233	0,01
319,686	0,02
320,139	0,02
320,592	0,02
321,045	0,02
321,498	0,02
321,951	0,01
322,404	0,01
322,857	0,02
323,31	0,02
323,762	0,02
324,215	0,02
324,667	0,02
325,12	0,01
325,573	0,01
326,025	0,01
326,477	0,01
326,93	0,01
327,382	0,01
327,834	0,02
328,286	0,03
328,739	0,03
329,191	0,02
329,643	0,02
330,095	0,01
330,547	0,01
330,999	0,02
331,45	0,02
331,902	0,01
332,354	0,02
332,806	0,02
333,257	0,02
333,709	0,02
334,16	0,02
334,612	0,02
335,063	0,02
335,515	0,02
335,966	0,02
336,417	0,02
336,869	0,02
337,32	0,02
337,771	0,02
338,222	0,03
338,673	0,03
339,124	0,02
339,575	0,02
340,026	0,03
340,477	0,02
340,928	0,02
341,378	0,02
341,829	0,03
342,28	0,03
342,73	0,03
343,181	0,03
343,631	0,03
344,082	0,03
344,532	0,03
344,982	0,03
345,433	0,03
345,883	0,03
346,333	0,03
346,783	0,03
347,233	0,04
347,683	0,03
348,133	0,04
348,583	0,04
349,033	0,04
349,483	0,04
349,933	0,04
350,383	0,04
350,832	0,04
351,282	0,04
351,732	0,04
352,181	0,04
352,631	0,05
353,08	0,05
353,529	0,05
353,979	0,05
354,428	0,05
354,877	0,05
355,327	0,05
355,776	0,05
356,225	0,06
356,674	0,06
357,123	0,06
357,572	0,06
358,021	0,06
358,469	0,06
358,918	0,07
359,367	0,07
359,816	0,07
360,264	0,07
360,713	0,07
361,161	0,08
361,61	0,08
362,058	0,08
362,507	0,08
362,955	0,09
363,403	0,09
363,852	0,09
364,3	0,09
364,748	0,1
365,196	0,1
365,644	0,1
366,092	0,11
366,54	0,11
366,988	0,12
367,436	0,12
367,883	0,12
368,331	0,13
368,779	0,13
369,226	0,13
369,674	0,14
370,121	0,14
370,569	0,14
371,016	0,15
371,464	0,16
371,911	0,16
372,358	0,16
372,805	0,17
373,253	0,17
373,7	0,17
374,147	0,18
374,594	0,19
375,041	0,19
375,488	0,19
375,935	0,2
376,381	0,21
376,828	0,22
377,275	0,22
377,721	0,22
378,168	0,23
378,615	0,23
379,061	0,23
379,508	0,25
379,954	0,24
380,4	0,25
380,847	0,26
381,293	0,26
381,739	0,26
382,185	0,28
382,631	0,28
383,077	0,28
383,523	0,28
383,969	0,29
384,415	0,29
384,861	0,29
385,307	0,3
385,752	0,3
386,198	0,31
386,644	0,31
387,089	0,31
387,535	0,32
387,98	0,32
388,426	0,32
388,871	0,32
389,317	0,33
389,762	0,33
390,207	0,34
390,652	0,34
391,097	0,33
391,542	0,34
391,987	0,34
392,432	0,34
392,877	0,34
393,322	0,34
393,767	0,34
394,212	0,35
394,656	0,35
395,101	0,34
395,546	0,34
395,99	0,34
396,435	0,34
396,879	0,34
397,324	0,34
397,768	0,34
398,212	0,34
398,657	0,34
399,101	0,34
399,545	0,34
399,989	0,33
400,433	0,33
400,877	0,33
401,321	0,33
401,765	0,32
402,209	0,33
402,653	0,32
403,096	0,32
403,54	0,32
403,984	0,32
404,427	0,31
404,871	0,31
405,314	0,31
405,758	0,3
406,201	0,3
406,644	0,3
407,088	0,29
407,531	0,29
407,974	0,29
408,417	0,28
408,86	0,28
409,303	0,27
409,746	0,27
410,189	0,26
410,632	0,27
411,075	0,26
411,517	0,26
411,96	0,25
412,403	0,25
412,845	0,25
413,288	0,24
413,73	0,23
414,173	0,23
414,615	0,23
415,058	0,23
415,5	0,22
415,942	0,22
416,384	0,21
416,826	0,2
417,268	0,2
417,711	0,2
418,152	0,2
418,594	0,19
419,036	0,19
419,478	0,18
419,92	0,18
420,362	0,17
420,803	0,17
421,245	0,16
421,686	0,16
422,128	0,15
422,569	0,15
423,011	0,15
423,452	0,15
423,893	0,14
424,335	0,14
424,776	0,13
425,217	0,13
425,658	0,12
426,099	0,12
426,54	0,12
426,981	0,12
427,422	0,11
427,863	0,11
428,304	0,11
428,744	0,1
429,185	0,1
429,626	0,09
430,066	0,09
430,507	0,09
430,947	0,09
431,388	0,08
431,828	0,08
432,268	0,08
432,709	0,08
433,149	0,08
433,589	0,07
434,029	0,07
434,469	0,07
434,909	0,07
435,349	0,06
435,789	0,07
436,229	0,06
436,669	0,06
437,108	0,05
437,548	0,06
437,988	0,05
438,427	0,05
438,867	0,05
439,306	0,05
439,746	0,05
440,185	0,04
440,624	0,04
441,064	0,04
441,503	0,05
441,942	0,04
442,381	0,04
442,82	0,04
443,259	0,04
443,698	0,04
444,137	0,03
444,576	0,04
445,015	0,04
445,453	0,03
445,892	0,04
446,331	0,03
446,769	0,03
447,208	0,03
447,646	0,03
448,085	0,03
448,523	0,03
448,961	0,03
449,4	0,03
449,838	0,03
450,276	0,03
450,714	0,02
451,152	0,03
451,59	0,03
452,028	0,03
452,466	0,02
452,904	0,03
453,342	0,02
453,779	0,03
454,217	0,03
454,655	0,03
455,092	0,02
455,53	0,03
455,967	0,02
456,405	0,03
456,842	0,03
457,279	0,02
457,717	0,03
458,154	0,02
458,591	0,02
459,028	0,02
459,465	0,01
459,902	0,02
460,339	0,03
460,776	0,02
461,213	0,03
461,65	0,02
462,086	0,01
462,523	0,02
462,96	0,02
463,396	0,01
463,833	0,02
464,269	0,02
464,706	0,02
465,142	0,01
465,578	0,02
466,015	0,01
466,451	0,01
466,887	0,01
467,323	0,02
467,759	0,02
468,195	0,01
468,631	0,01
469,067	0,02
469,503	0,01
469,939	0,01
470,374	0,01
470,81	0,01
471,246	0,01
471,681	0,01
472,117	0,01
472,552	0,01
472,988	0,01
473,423	0,01
473,858	0,01
474,294	0,01
474,729	0,01
475,164	0,01
475,599	0,01
476,034	0,01
476,469	0
476,904	0,01
477,339	0
477,774	0
478,208	0
478,643	0
479,078	0
479,512	0
479,947	0
480,381	-0
480,816	-0
481,25	-0
481,685	0
482,119	0
482,553	-0
482,987	0
483,421	-0
483,856	-0
484,29	0
484,724	-0
485,157	-0
485,591	-0
486,025	-0
486,459	-0
486,893	0
487,326	-0,01
487,76	-0,01
488,193	-0,01
488,627	-0
489,06	-0
489,494	-0,01
489,927	-0,01
490,36	-0
490,794	-0
491,227	-0,01
491,66	-0,01
492,093	-0,01
492,526	-0,01
492,959	-0,01
493,392	-0,01
493,825	-0,01
494,257	-0,01
494,69	-0,01
495,123	-0,01
495,555	-0,01
495,988	-0,01
496,421	-0,01
496,853	-0,01
497,285	-0,01
497,718	-0,01
498,15	-0,01
498,582	-0,01
499,015	-0,01
499,447	-0,01
499,879	-0,01
500,311	-0,01
500,743	-0,01
501,175	-0,01
501,607	-0,01
502,038	-0,01
502,47	-0,01
502,902	-0,01
503,334	-0,01
503,765	-0,01
504,197	-0,01
504,628	-0,01
505,06	-0,01
505,491	-0,01
505,922	-0,01
506,354	-0,01
506,785	-0,01
507,216	-0,01
507,647	-0,01
508,078	-0,01
508,509	-0,01
508,94	-0,01
509,371	-0,02
509,802	-0,01
510,233	-0,01
510,664	-0,02
511,094	-0,01
511,525	-0,01
511,955	-0,01
512,386	-0,01
512,816	-0,01
513,247	-0,01
513,677	-0,01
514,108	-0,01
514,538	-0,01
514,968	-0,01
515,398	-0,01
515,828	-0,01
516,258	-0,01
516,688	-0,01
517,118	-0,02
517,548	-0,01
517,978	-0,01
518,408	-0,01
518,837	-0,01
519,267	-0,01
519,697	-0,01
520,126	-0,01
520,556	-0,01
520,985	-0,02
521,415	-0,01
521,844	-0,01
522,273	-0,01
522,702	-0,01
523,132	-0,01
523,561	-0,01
523,99	-0,01
524,419	-0,02
524,848	-0,02
525,277	-0,01
525,705	-0,01
526,134	-0,01
526,563	-0,01
526,992	-0,02
527,42	-0,01
527,849	-0,01
528,277	-0,02
528,706	-0,01
529,134	-0,01
529,563	-0,02
529,991	-0,01
530,419	-0,01
530,847	-0,01
531,275	-0,01
531,703	-0,01
532,131	-0,01
532,559	-0,02
532,987	-0,02
533,415	-0,01
533,843	-0,02
534,271	-0,02
534,698	-0,02
535,126	-0,01
535,554	-0,02
535,981	-0,01
536,409	-0,01
536,836	-0,01
537,264	-0,01
537,691	-0,01
538,118	-0,02
538,545	-0,01
538,972	-0,01
539,4	-0,01
539,827	-0,02
540,254	-0,01
540,681	-0,02
541,107	-0,01
541,534	-0,01
541,961	-0,01
542,388	-0,01
542,814	-0,01
543,241	-0,01
543,667	-0,02
544,094	-0,02
544,52	-0,01
544,947	-0,02
545,373	-0,02
545,799	-0,01
546,226	-0,01
546,652	-0,02
547,078	-0,02
547,504	-0,01
547,93	-0,01
548,356	-0,02
548,782	-0,01
549,208	-0,01
549,633	-0,01
550,059	-0,01
550,485	-0,01
550,91	-0,02
551,336	-0,01
551,761	-0,02
552,187	-0,02
552,612	-0,01
553,038	-0,01
553,463	-0,02
553,888	-0,02
554,313	-0,02
554,738	-0,02
555,163	-0,02
555,588	-0,01
556,013	-0,01
556,438	-0,01
556,863	-0,01
557,288	-0,01
557,713	-0,01
558,137	-0,01
558,562	-0,02
558,986	-0,01
559,411	-0,02
559,835	-0,02
560,26	-0,01
560,684	-0,01
561,108	-0,02
561,533	-0,01
561,957	-0,01
562,381	-0,01
562,805	-0,01
563,229	-0,01
563,653	-0,02
564,077	-0,02
564,501	-0,02
564,925	-0,01
565,348	-0,01
565,772	-0,01
566,196	-0,02
566,619	-0,01
567,043	-0,01
567,466	-0,01
567,89	-0,01
568,313	-0,01
568,736	-0,01
569,159	-0,01
569,583	-0,01
570,006	-0,01
570,429	-0,01
570,852	-0,01
571,275	-0,01
571,698	-0,01
572,12	-0,01
572,543	-0,01
572,966	-0,01
573,389	-0,01
573,811	-0,01
574,234	-0,01
574,656	-0,01
575,079	-0,01
575,501	-0,01
575,924	-0,01
576,346	-0,01
576,768	-0
577,19	-0,01
577,612	-0,01
578,034	-0,01
578,456	-0,01
578,878	-0
579,3	-0
579,722	-0
580,144	-0
580,566	-0
580,987	-0
581,409	-0,01
581,83	-0
582,252	-0
582,673	0
583,095	0
583,516	0
583,937	0
584,359	-0
584,78	-0
585,201	-0
585,622	-0
586,043	-0
586,464	0
586,885	0
587,306	0
587,726	0
588,147	0
588,568	0
588,988	0
589,409	0
589,83	0
590,25	0
590,67	0
591,091	0
591,511	0,01
591,931	0,01
592,351	0,01
592,771	0
593,192	0
593,612	0
594,031	0,01
594,451	0,01
594,871	0,01
595,291	0,01
595,711	0,01
596,13	0,01
596,55	0,01
596,969	0,01
597,389	0,01
597,808	0,01
598,228	0,01
598,647	0,01
599,066	0,01
599,486	0,01
599,905	0,01
600,324	0,01
600,743	0,01
601,162	0,02
601,581	0,02
602	0,02
602,418	0,01
602,837	0,02
603,256	0,01
603,674	0,02
604,093	0,01
604,512	0,02
604,93	0,02
605,349	0,02
605,767	0,02
606,185	0,02
606,603	0,02
607,022	0,03
607,44	0,02
607,858	0,02
608,276	0,02
608,694	0,02
609,112	0,02
609,53	0,02
609,947	0,03
610,365	0,03
610,783	0,02
611,2	0,02
611,618	0,03
612,036	0,03
612,453	0,03
612,87	0,03
613,288	0,03
613,705	0,03
614,122	0,03
614,539	0,03
614,957	0,03
615,374	0,03
615,791	0,04
616,208	0,03
616,624	0,04
617,041	0,04
617,458	0,04
617,875	0,03
618,291	0,04
618,708	0,04
619,125	0,04
619,541	0,04
619,958	0,04
620,374	0,04
620,79	0,04
621,206	0,04
621,623	0,04
622,039	0,04
622,455	0,04
622,871	0,04
623,287	0,04
623,703	0,05
624,119	0,04
624,535	0,04
624,95	0,05
625,366	0,05
625,782	0,05
626,197	0,05
626,613	0,05
627,028	0,05
627,444	0,05
627,859	0,05
628,274	0,05
628,69	0,05
629,105	0,06
629,52	0,06
629,935	0,06
630,35	0,06
630,765	0,06
631,18	0,06
631,595	0,06
632,009	0,06
632,424	0,06
632,839	0,06
633,253	0,06
633,668	0,07
634,082	0,06
634,497	0,06
634,911	0,06
635,326	0,07
635,74	0,07
636,154	0,07
636,568	0,07
636,982	0,07
637,396	0,07
637,81	0,08
638,224	0,07
638,638	0,07
639,052	0,07
639,466	0,07
639,879	0,07
640,293	0,08
640,707	0,08
641,12	0,07
641,534	0,08
641,947	0,07
642,36	0,08
642,774	0,08
643,187	0,08
643,6	0,08
644,013	0,08
644,426	0,08
644,839	0,08
645,252	0,08
645,665	0,08
646,078	0,08
646,491	0,08
646,904	0,08
647,316	0,08
647,729	0,09
648,141	0,08
648,554	0,09
648,966	0,09
649,379	0,09
649,791	0,09
650,203	0,09
650,615	0,09
651,028	0,09
651,44	0,09
651,852	0,09
652,264	0,09
652,676	0,09
653,087	0,09
653,499	0,09
653,911	0,1
654,323	0,09
654,734	0,09
655,146	0,09
655,557	0,1
655,969	0,09
656,38	0,1
656,792	0,1
657,203	0,1
657,614	0,11
658,025	0,1
658,436	0,1
658,847	0,09
659,258	0,1
659,669	0,1
660,08	0,09
660,491	0,09
660,902	0,09
661,312	0,09
661,723	0,09
662,134	0,09
662,544	0,09
662,955	0,1
663,365	0,09
663,775	0,09
664,186	0,09
664,596	0,09
665,006	0,09
665,416	0,09
665,826	0,09
666,236	0,09
666,646	0,09
667,056	0,09
667,466	0,09
667,876	0,1
668,286	0,09
668,695	0,09
669,105	0,09
669,514	0,09
669,924	0,09
670,333	0,09
670,743	0,09
671,152	0,09
671,561	0,1
671,97	0,09
672,38	0,09
672,789	0,09
673,198	0,09
673,607	0,1
674,016	0,09
674,424	0,09
674,833	0,1
675,242	0,09
675,651	0,1
676,059	0,09
676,468	0,09
676,876	0,09
677,285	0,09
677,693	0,09
678,101	0,09
678,51	0,09
678,918	0,09
679,326	0,09
679,734	0,1
680,142	0,09
680,55	0,09
680,958	0,1
681,366	0,09
681,774	0,09
682,181	0,09
682,589	0,09
682,997	0,09
683,404	0,09
683,812	0,1
684,219	0,1
684,627	0,1
685,034	0,1
685,441	0,1
685,848	0,1
686,256	0,1
686,663	0,1
687,07	0,1
687,477	0,1
687,884	0,1
688,29	0,1
688,697	0,1
689,104	0,1
689,511	0,09
689,917	0,1
690,324	0,1
690,73	0,1
691,137	0,1
691,543	0,1
691,95	0,1
692,356	0,1
692,762	0,1
693,168	0,1
693,574	0,1
693,98	0,1
694,386	0,1
694,792	0,1
695,198	0,1
695,604	0,1
696,01	0,1
696,415	0,1
696,821	0,1
697,227	0,1
697,632	0,11
698,038	0,11
698,443	0,1
698,848	0,11
699,254	0,11
699,659	0,11
700,064	0,11
700,469	0,11
700,874	0,1
701,279	0,1
701,684	0,1
702,089	0,11
702,494	0,11
702,898	0,11
703,303	0,11
703,708	0,11
704,112	0,11
704,517	0,11
704,921	0,11
705,326	0,11
705,73	0,11
706,134	0,11
706,538	0,11
706,943	0,11
707,347	0,11
707,751	0,11
708,155	0,11
708,559	0,11
708,963	0,11
709,366	0,11
709,77	0,11
710,174	0,11
710,577	0,11
710,981	0,11
711,384	0,11
711,788	0,11
712,191	0,11
712,595	0,11
712,998	0,11
713,401	0,11
713,804	0,12
714,207	0,12
714,61	0,12
715,013	0,12
715,416	0,12
715,819	0,11
716,222	0,12
716,625	0,11
717,027	0,12
717,43	0,12
717,833	0,11
718,235	0,11
718,638	0,11
719,04	0,11
719,442	0,11
719,844	0,12
720,247	0,11
720,649	0,12
721,051	0,12
721,453	0,12
721,855	0,12
722,257	0,11
722,659	0,12
723,06	0,12
723,462	0,12
723,864	0,12
724,265	0,12
724,667	0,12
725,069	0,12
725,47	0,12
725,871	0,12
726,273	0,12
726,674	0,12
727,075	0,12
727,476	0,11
727,877	0,12
728,278	0,11
728,679	0,12
729,08	0,11
729,481	0,11
729,882	0,11
730,282	0,11
730,683	0,12
731,084	0,12
731,484	0,11
731,885	0,11
732,285	0,11
732,686	0,12
733,086	0,12
733,486	0,11
733,886	0,11
734,286	0,11
734,686	0,11
735,086	0,11
735,486	0,11
735,886	0,11
736,286	0,11
736,686	0,11
737,086	0,11
737,485	0,11
737,885	0,11
738,284	0,11
738,684	0,11
739,083	0,11
739,482	0,11
739,882	0,11
740,281	0,11
740,68	0,11
741,079	0,11
741,478	0,1
741,877	0,1
742,276	0,1
742,675	0,1
743,074	0,11
743,473	0,11
743,871	0,1
744,27	0,11
744,668	0,11
745,067	0,1
745,465	0,1
745,864	0,1
746,262	0,1
746,66	0,1
747,059	0,1
747,457	0,1
747,855	0,1
748,253	0,1
748,651	0,1
749,049	0,1
749,447	0,1
749,844	0,1
750,242	0,1
750,64	0,1
751,037	0,1
751,435	0,1
751,832	0,1
752,23	0,1
752,627	0,09
753,024	0,09
753,422	0,09
753,819	0,09
754,216	0,09
754,613	0,09
755,01	0,09
755,407	0,09
755,804	0,09
756,201	0,09
756,597	0,09
756,994	0,09
757,391	0,09
757,787	0,09
758,184	0,09
758,58	0,09
758,977	0,09
759,373	0,09
759,769	0,08
760,166	0,08
760,562	0,08
760,958	0,08
761,354	0,08
761,75	0,08
762,146	0,09
762,542	0,08
762,937	0,08
763,333	0,08
763,729	0,08
764,124	0,08
764,52	0,08
764,915	0,08
765,311	0,08
765,706	0,08
766,101	0,07
766,497	0,08
766,892	0,08
767,287	0,07
767,682	0,07
768,077	0,07
768,472	0,07
768,867	0,07
769,262	0,07
769,657	0,07
770,051	0,07
770,446	0,07
770,84	0,07
771,235	0,07
771,629	0,07
772,024	0,07
772,418	0,07
772,812	0,07
773,207	0,07
773,601	0,07
773,995	0,07
774,389	0,06
774,783	0,06
775,177	0,06
775,571	0,06
775,964	0,06
776,358	0,06
776,752	0,06
777,145	0,06
777,539	0,06
777,932	0,06
778,326	0,06
778,719	0,06
779,113	0,06
779,506	0,06
779,899	0,06
780,292	0,06
780,685	0,05
781,078	0,06
781,471	0,05
781,864	0,06
782,257	0,05
782,65	0,05
783,042	0,06
783,435	0,05
783,827	0,05
784,22	0,05
784,612	0,05
785,005	0,05
785,397	0,05
785,789	0,05
786,182	0,05
786,574	0,05
786,966	0,05
787,358	0,05
787,75	0,05
788,142	0,05
788,534	0,05
788,925	0,04
789,317	0,04
789,709	0,04
790,1	0,04
790,492	0,05
790,883	0,04
791,275	0,04
791,666	0,05
792,057	0,04
792,449	0,04
792,84	0,04
793,231	0,04
793,622	0,04
794,013	0,04
794,404	0,04
794,795	0,04
795,185	0,04
795,576	0,04
795,967	0,04
796,357	0,04
796,748	0,04
797,138	0,04
797,529	0,04
797,919	0,03
798,31	0,03
798,7	0,03
799,09	0,03
799,48	0,03
799,87	0,03
800,26	0,03
800,65	0,03
801,04	0,03
801,43	0,03
801,82	0,03
802,209	0,03
802,599	0,03
802,988	0,03
803,378	0,03
803,767	0,03
804,157	0,03
804,546	0,03
804,935	0,03
805,325	0,03
805,714	0,03
806,103	0,03
806,492	0,03
806,881	0,03
807,27	0,02
807,658	0,02
808,047	0,03
808,436	0,02
808,824	0,03
809,213	0,02
809,602	0,03
809,99	0,02
810,378	0,02
810,767	0,02
811,155	0,02
811,543	0,02
811,931	0,02
812,319	0,02
812,708	0,02
813,095	0,02
813,483	0,02
813,871	0,01
814,259	0,02
814,647	0,02
815,034	0,02
815,422	0,02
815,809	0,02
816,197	0,02
816,584	0,02
816,972	0,02
817,359	0,01
817,746	0,01
818,133	0,02
818,52	0,01
818,907	0,01
819,294	0,02
819,681	0,01
820,068	0,02
820,455	0,01
820,842	0,01
821,228	0,02
821,615	0,01
822,002	0,02
822,388	0,01
822,774	0,01
823,161	0,01
823,547	0,01
823,933	0,01
824,319	0,01
824,706	0,01
825,092	0,01
825,478	0,01
825,863	0
826,249	0,01
826,635	0,01
827,021	0,01
827,407	0,01
827,792	0,01
828,178	0
828,563	0,01
828,949	0,01
829,334	0,01
829,719	0,01
830,104	0,01
830,49	0,01
830,875	0,01
831,26	0
831,645	-0
832,03	0,01
832,415	0
832,799	0
833,184	0
833,569	0
833,953	0
834,338	0
834,722	0
835,107	0
835,491	0
835,875	0,01
836,26	0
836,644	0
837,028	-0,01
837,412	-0
837,796	-0
838,18	0
838,564	0
838,948	0
839,331	-0
839,715	-0
840,099	-0
840,482	0
840,866	0
841,249	-0
841,632	-0
842,016	0
842,399	-0
842,782	-0,01
843,165	-0
843,548	-0
843,931	-0
844,314	-0,01
844,697	-0
845,08	0
845,463	-0
845,845	-0
846,228	-0,01
846,61	-0
846,993	-0
847,375	-0,01
847,758	0
848,14	-0,01
848,522	-0,01
848,904	-0,01
849,286	-0,01
849,668	-0
850,05	-0
850,432	-0,01
850,814	-0,01
851,196	-0,01
851,578	-0,01
851,959	-0,01
852,341	-0
852,722	-0,01
853,104	-0,01
853,485	-0,01
853,867	-0
854,248	-0,01
854,629	-0,01
855,01	-0,01
855,391	-0,01
855,773	-0,01
856,153	-0,01
856,534	-0,01
856,915	-0
857,296	-0,01
857,677	-0,01
858,057	-0,01
858,438	-0,01
858,819	-0,01
859,199	-0,01
859,579	-0,01
859,96	-0,01
860,34	-0,01
860,72	-0,01
861,1	-0,01
861,48	-0,01
861,86	-0,01
862,24	-0,01
862,62	-0,01
863	-0,01
863,38	-0,01
863,76	-0,01
864,139	-0,01
864,519	-0,01
864,898	-0,02
865,278	-0,01
865,657	-0,01
866,037	-0,01
866,416	-0,01
866,795	-0,02
867,174	-0,01
867,553	-0,01
867,932	-0,01
868,311	-0,01
868,69	-0,02
869,069	-0,02
869,448	-0,02
869,826	-0,01
870,205	-0,01
870,584	-0,01
870,962	-0,02
871,341	-0,02
871,719	-0,02
872,097	-0,02
872,475	-0,02
872,854	-0,01
873,232	-0,02
873,61	-0,01
873,988	-0,02
874,366	-0,02
874,744	-0,01
875,121	-0,02
875,499	-0,02
875,877	-0,01
876,255	-0,01
876,632	-0,02
877,01	-0,02
877,387	-0,02
877,764	-0,01
878,142	-0,02
878,519	-0,02
878,896	-0,02
879,273	-0,02
879,65	-0,02
880,027	-0,02
880,404	-0,02
880,781	-0,01
881,158	-0,02
881,534	-0,01
881,911	-0,02
882,288	-0,02
882,664	-0,02
883,041	-0,02
883,417	-0,02
883,793	-0,02
884,17	-0,02
884,546	-0,02
884,922	-0,02
885,298	-0,02
885,674	-0,02
886,05	-0,02
886,426	-0,02
886,802	-0,01
887,178	-0,02
887,553	-0,03
887,929	-0,02
888,305	-0,02
888,68	-0,02
889,056	-0,01
889,431	-0,02
889,806	-0,02
890,182	-0,02
890,557	-0,02
890,932	-0,02
891,307	-0,02
891,682	-0,02
892,057	-0,02
892,432	-0,02
892,807	-0,02
893,181	-0,02
893,556	-0,02
893,931	-0,02
894,305	-0,02
894,68	-0,02
895,054	-0,02
895,428	-0,01
895,803	-0,01
896,177	-0,02
896,551	-0,02
896,925	-0,02
897,299	-0,02
897,673	-0,02
898,047	-0,02
898,421	-0,01
898,795	-0,02
899,169	-0,02
899,542	-0,02
899,916	-0,02
900,289	-0,02
900,663	-0,01
901,036	-0,02
901,41	-0,01
901,783	-0,02
902,156	-0,02
902,529	-0,02
902,902	-0,02
903,275	-0,02
903,648	-0,01
904,021	-0,02
904,394	-0,02
904,767	-0,02
905,139	-0,02
905,512	-0,02
905,885	-0,02
906,257	-0,02
906,629	-0,02
907,002	-0,02
907,374	-0,02
907,746	-0,01
908,119	-0,02
908,491	-0,02
908,863	-0,02
909,235	-0,02
909,607	-0,02
909,978	-0,02
910,35	-0,02
910,722	-0,02
911,094	-0,02
911,465	-0,03
911,837	-0,02
912,208	-0,01
912,58	-0,01
912,951	-0,02
913,322	-0,01
913,693	-0,02
914,065	-0,02
914,436	-0,02
914,807	-0,02
915,178	-0,02
915,548	-0,02
915,919	-0,02
916,29	-0,02
916,661	-0,02
917,031	-0,02
917,402	-0,02
917,772	-0,02
918,143	-0,02
918,513	-0,02
918,884	-0,01
919,254	-0,02
919,624	-0,02
919,994	-0,02
920,364	-0,02
920,734	-0,03
921,104	-0,02
921,474	-0,03
921,844	-0,03
922,213	-0,02
922,583	-0,03
922,953	-0,02
923,322	-0,02
923,692	-0,01
924,061	-0,02
924,43	-0,03
924,8	-0,02
925,169	-0,02
925,538	-0,03
925,907	-0,02
926,276	-0,02
926,645	-0,02
927,014	-0,02
927,383	-0,02
927,751	-0,03
928,12	-0,02
928,489	-0,03
928,857	-0,03
929,226	-0,01
929,594	-0,03
929,962	-0,03
930,331	-0,02
930,699	-0,03
931,067	-0,03
931,435	-0,02
931,803	-0,03
932,171	-0,03
932,539	-0,03
932,907	-0,02
933,275	-0,03
933,642	-0,03
934,01	-0,03
934,378	-0,03
934,745	-0,03
935,113	-0,02
935,48	-0,03
935,847	-0,03
936,215	-0,04
936,582	-0,02
936,949	-0,03
937,316	-0,03
937,683	-0,03
938,05	-0,03
938,417	-0,03
938,783	-0,04
939,15	-0,03
939,517	-0,04
939,883	-0,03
940,25	-0,03
940,616	-0,03
940,983	-0,04
941,349	-0,04
941,715	-0,04
942,082	-0,05
942,448	-0,04
942,814	-0,03
943,18	-0,03
943,546	-0,04
943,912	-0,03
944,277	-0,04
944,643	-0,03
945,009	-0,03
945,374	-0,04
945,74	-0,04
946,105	-0,02
946,471	-0,02
946,836	-0,03
947,202	-0,05
947,567	-0,04
947,932	-0,04
948,297	-0,04
948,662	-0,04
949,027	-0,05
949,392	-0,04
949,757	-0,03
950,121	-0,04
950,486	-0,04
950,851	-0,04
951,215	-0,03
951,58	-0,03
951,944	-0,03
952,309	-0,05
952,673	-0,04
953,037	-0,04
953,401	-0,03
953,765	-0,04
954,129	-0,05
954,493	-0,04
954,857	-0,05
955,221	-0,04
955,585	-0,03
955,949	-0,05
956,312	-0,03
956,676	-0,04
957,039	-0,04
957,403	-0,04
957,766	-0,03
958,13	-0,05
958,493	-0,02
958,856	-0,03
959,219	-0,02
959,582	-0,04
959,945	-0,04
960,308	-0,05
960,671	-0,03
961,034	-0,04
961,396	-0,05
961,759	-0,04
962,122	-0,05
962,484	-0,04
962,847	-0,05
963,209	-0,03
963,571	-0,02
963,934	-0,05
964,296	-0,01
964,658	-0,02
965,02	-0,04
965,382	-0,04
965,744	-0,02
966,106	-0,04
966,468	-0,02
966,829	-0,03
967,191	-0,04
967,553	-0,06
967,914	-0,04
968,276	-0,04
968,637	-0,04
968,998	-0,03
969,36	0,01
969,721	-0,04
970,082	-0,06
970,443	-0,03
970,804	-0,04
971,165	-0,02
971,526	-0,03
971,887	-0,01
972,247	-0,05
972,608	-0,03
972,969	-0,03
973,329	-0,03
973,69	-0,05
974,05	-0,02
974,41	-0,01
974,771	-0,03
975,131	-0,03
975,491	-0,02
975,851	-0,03
976,211	0,01
976,571	-0,03
976,931	-0,01
977,291	0,01
977,65	0,02
978,01	0,01
978,37	-0
978,729	0,03
979,089	-0,02
979,448	0,02
979,807	-0,03
980,167	-0,03
980,526	0,03
980,885	-0,03
981,244	0
981,603	-0,01
981,962	0,01
982,321	-0,02
982,68	-0,06
983,038	-0
983,397	-0,01
983,756	-0,01
984,114	0,01
984,473	-0,01
984,831	0,02
985,19	-0,04
985,548	-0
985,906	0
986,264	0,02
986,622	-0,04
986,98	-0,01
987,338	-0,02
987,696	-0,05
988,054	-0,09
988,412	0,01
988,769	-0,03
989,127	0
989,484	-0,06
989,842	0,01
990,199	0,05
990,557	-0,01
990,914	0,04
991,271	0
991,628	-0,03
991,985	-0,01
992,342	-0,07
992,699	0
993,056	-0,02
993,413	0,01
993,77	-0,02
994,126	0,03
994,483	-0
994,84	-0,01
995,196	-0
995,552	0,03
995,909	0,05
996,265	-0,01
996,621	0,01
996,977	-0,02
997,333	-0,01
997,689	0,08
998,045	0,01
998,401	-0,02
998,757	0,05
999,113	-0,01
999,468	-0,02
999,824	0,02
1000,18	-0,07
1000,535	-0,09
1000,89	-0,01
1001,246	0
1001,601	0,02
1001,956	0,02
1002,311	-0,01
1002,666	-0
1003,021	0,04
1003,376	0
1003,731	-0
1004,086	0,04
1004,441	-0,05
1004,795	-0,01
1005,15	0,01
1005,505	-0,02
1005,859	-0,05
1006,213	0,09
1006,568	0,02
1006,922	-0,05
1007,276	0,01
1007,63	-0,02
1007,984	-0,03
1008,338	-0,06
1008,692	-0,11
1009,046	0,03
1009,4	0,04
1009,754	-0,01
1010,107	-0,05
1010,461	-0
1010,814	0,03
1011,168	-0,06
1011,521	-0,04
1011,874	-0,04
1012,228	-0,04
1012,581	0,05
1012,934	0,02
1013,287	0,03
1013,64	-0,12
1013,993	0,04
1014,346	0,07
1014,699	0,1
1015,051	-0,04
1015,404	-0,04
1015,756	-0,06
1016,109	-0,06
1016,461	0,02
1016,814	-0,05
1017,166	0,02
1017,518	0
1017,87	0,03
1018,223	-0,09
1018,575	0,01
1018,927	0,03
1019,278	0,04
1019,63	0,05
1019,982	-0
1020,334	0,11
1020,685	0,03
1021,037	0,07
1021,388	-0,02
1021,74	-0,04
1022,091	0,03
1022,442	-0,07
1022,794	0,05
1023,145	0,01
1023,496	-0,03
1023,847	-0,1
1024,198	0,03
1024,549	0,01
1024,9	0,08
1025,25	0,08
1025,601	-0,06
1025,952	-0,03
1026,302	-0,07
1026,653	-0,04
1027,003	-0
1027,353	0,14
1027,704	0,09
1028,054	-0,06
1028,404	0,02
1028,754	-0,03
1029,104	0,1
1029,454	-0,07
1029,804	-0,02
1030,154	0,07
1030,503	0,07
1030,853	0,07
