Data from Absorbance__11__15-12-34-625.txt Node

Date: Thu Apr 28 15:12:34 CEST 2022
User: jeppe
Spectrometer: FLMS06037
Trigger mode: 0
Integration Time (sec): 8,500000E-2
Scans to average: 10
Electric dark correction enabled: true
Nonlinearity correction enabled: false
Boxcar width: 0
XAxis mode: Wavelengths
Number of Pixels in Spectrum: 2048
>>>>>Begin Spectral Data<<<<<
187,642	-0,88
188,109	-0,88
188,576	-0,88
189,043	0,11
189,51	-0
189,976	0,28
190,443	0,48
190,91	0,03
191,376	-1,07
191,843	0,9
192,309	0,38
192,776	0,05
193,242	-0,73
193,708	0,36
194,175	0,81
194,641	0,29
195,107	-0
195,573	-0
196,039	1,02
196,505	-0
196,971	-0
197,437	-0
197,903	0,49
198,369	0,05
198,835	0,1
199,301	0,06
199,766	0,11
200,232	0,04
200,698	0,11
201,163	0,12
201,629	0,06
202,094	0,15
202,56	0,14
203,025	0,14
203,49	0,12
203,956	0,1
204,421	0,12
204,886	0,08
205,351	0,07
205,816	0,05
206,281	0,06
206,746	0,1
207,211	0,13
207,676	0,1
208,141	0,07
208,606	0,08
209,071	0,12
209,536	0,09
210	0,08
210,465	0,11
210,929	0,1
211,394	0,12
211,859	0,14
212,323	0,13
212,787	0,17
213,252	0,16
213,716	0,2
214,18	0,2
214,645	0,23
215,109	0,31
215,573	0,31
216,037	0,35
216,501	0,37
216,965	0,39
217,429	0,45
217,893	0,46
218,357	0,47
218,82	0,45
219,284	0,46
219,748	0,47
220,211	0,44
220,675	0,43
221,139	0,41
221,602	0,38
222,066	0,35
222,529	0,34
222,992	0,32
223,456	0,29
223,919	0,28
224,382	0,26
224,845	0,24
225,308	0,23
225,772	0,21
226,235	0,2
226,698	0,19
227,16	0,17
227,623	0,16
228,086	0,15
228,549	0,14
229,012	0,14
229,474	0,13
229,937	0,12
230,4	0,11
230,862	0,11
231,325	0,11
231,787	0,1
232,25	0,1
232,712	0,09
233,174	0,09
233,637	0,09
234,099	0,08
234,561	0,08
235,023	0,08
235,485	0,08
235,947	0,08
236,409	0,07
236,871	0,07
237,333	0,07
237,795	0,07
238,257	0,07
238,718	0,07
239,18	0,06
239,642	0,06
240,103	0,07
240,565	0,06
241,026	0,06
241,488	0,06
241,949	0,06
242,411	0,06
242,872	0,06
243,333	0,06
243,795	0,06
244,256	0,06
244,717	0,06
245,178	0,05
245,639	0,05
246,1	0,06
246,561	0,05
247,022	0,05
247,483	0,05
247,943	0,05
248,404	0,05
248,865	0,05
249,325	0,05
249,786	0,05
250,247	0,05
250,707	0,05
251,168	0,04
251,628	0,05
252,088	0,05
252,549	0,05
253,009	0,04
253,469	0,05
253,929	0,04
254,389	0,04
254,849	0,04
255,309	0,04
255,769	0,04
256,229	0,04
256,689	0,04
257,149	0,04
257,609	0,04
258,069	0,04
258,528	0,04
258,988	0,05
259,448	0,04
259,907	0,04
260,367	0,04
260,826	0,04
261,285	0,04
261,745	0,04
262,204	0,04
262,663	0,04
263,122	0,04
263,582	0,04
264,041	0,04
264,5	0,04
264,959	0,04
265,418	0,04
265,877	0,04
266,336	0,04
266,794	0,04
267,253	0,03
267,712	0,03
268,171	0,04
268,629	0,03
269,088	0,04
269,546	0,03
270,005	0,04
270,463	0,03
270,922	0,03
271,38	0,03
271,838	0,03
272,296	0,03
272,755	0,03
273,213	0,03
273,671	0,03
274,129	0,03
274,587	0,03
275,045	0,03
275,503	0,03
275,961	0,03
276,418	0,03
276,876	0,03
277,334	0,03
277,791	0,03
278,249	0,03
278,707	0,03
279,164	0,03
279,622	0,03
280,079	0,03
280,536	0,03
280,994	0,03
281,451	0,03
281,908	0,03
282,365	0,03
282,822	0,03
283,28	0,03
283,737	0,03
284,193	0,03
284,65	0,03
285,107	0,03
285,564	0,03
286,021	0,03
286,478	0,03
286,934	0,03
287,391	0,03
287,848	0,03
288,304	0,03
288,761	0,03
289,217	0,03
289,673	0,03
290,13	0,03
290,586	0,03
291,042	0,03
291,498	0,03
291,955	0,03
292,411	0,03
292,867	0,03
293,323	0,03
293,779	0,03
294,235	0,03
294,69	0,03
295,146	0,03
295,602	0,03
296,058	0,03
296,513	0,03
296,969	0,03
297,424	0,03
297,88	0,02
298,335	0,03
298,791	0,03
299,246	0,03
299,701	0,03
300,157	0,03
300,612	0,03
301,067	0,03
301,522	0,03
301,977	0,03
302,432	0,03
302,887	0,03
303,342	0,03
303,797	0,03
304,252	0,03
304,707	0,03
305,161	0,02
305,616	0,03
306,071	0,03
306,525	0,03
306,98	0,03
307,434	0,02
307,889	0,03
308,343	0,03
308,797	0,03
309,252	0,03
309,706	0,03
310,16	0,03
310,614	0,03
311,068	0,03
311,522	0,02
311,976	0,03
312,43	0,03
312,884	0,03
313,338	0,03
313,792	0,03
314,245	0,03
314,699	0,03
315,153	0,03
315,606	0,03
316,06	0,03
316,513	0,03
316,967	0,02
317,42	0,02
317,873	0,03
318,327	0,03
318,78	0,03
319,233	0,03
319,686	0,02
320,139	0,03
320,592	0,03
321,045	0,03
321,498	0,02
321,951	0,03
322,404	0,02
322,857	0,03
323,31	0,02
323,762	0,03
324,215	0,03
324,667	0,03
325,12	0,02
325,573	0,02
326,025	0,02
326,477	0,02
326,93	0,02
327,382	0,02
327,834	0,01
328,286	0,01
328,739	0,01
329,191	0,02
329,643	0,02
330,095	0,03
330,547	0,03
330,999	0,03
331,45	0,03
331,902	0,02
332,354	0,02
332,806	0,02
333,257	0,02
333,709	0,02
334,16	0,02
334,612	0,02
335,063	0,02
335,515	0,02
335,966	0,02
336,417	0,02
336,869	0,02
337,32	0,02
337,771	0,02
338,222	0,03
338,673	0,02
339,124	0,02
339,575	0,02
340,026	0,02
340,477	0,02
340,928	0,02
341,378	0,02
341,829	0,02
342,28	0,02
342,73	0,03
343,181	0,02
343,631	0,02
344,082	0,02
344,532	0,02
344,982	0,02
345,433	0,02
345,883	0,03
346,333	0,03
346,783	0,02
347,233	0,03
347,683	0,02
348,133	0,03
348,583	0,02
349,033	0,03
349,483	0,03
349,933	0,03
350,383	0,03
350,832	0,03
351,282	0,03
351,732	0,03
352,181	0,02
352,631	0,03
353,08	0,03
353,529	0,03
353,979	0,03
354,428	0,03
354,877	0,03
355,327	0,03
355,776	0,03
356,225	0,03
356,674	0,03
357,123	0,03
357,572	0,03
358,021	0,03
358,469	0,03
358,918	0,03
359,367	0,03
359,816	0,03
360,264	0,03
360,713	0,03
361,161	0,03
361,61	0,03
362,058	0,03
362,507	0,03
362,955	0,03
363,403	0,03
363,852	0,03
364,3	0,03
364,748	0,03
365,196	0,03
365,644	0,03
366,092	0,04
366,54	0,04
366,988	0,04
367,436	0,04
367,883	0,04
368,331	0,04
368,779	0,04
369,226	0,04
369,674	0,04
370,121	0,04
370,569	0,04
371,016	0,04
371,464	0,04
371,911	0,04
372,358	0,04
372,805	0,05
373,253	0,05
373,7	0,04
374,147	0,05
374,594	0,06
375,041	0,05
375,488	0,05
375,935	0,05
376,381	0,05
376,828	0,06
377,275	0,06
377,721	0,06
378,168	0,06
378,615	0,06
379,061	0,06
379,508	0,06
379,954	0,06
380,4	0,06
380,847	0,07
381,293	0,07
381,739	0,06
382,185	0,07
382,631	0,07
383,077	0,07
383,523	0,07
383,969	0,07
384,415	0,08
384,861	0,08
385,307	0,08
385,752	0,08
386,198	0,08
386,644	0,08
387,089	0,08
387,535	0,09
387,98	0,09
388,426	0,09
388,871	0,09
389,317	0,1
389,762	0,1
390,207	0,1
390,652	0,1
391,097	0,1
391,542	0,1
391,987	0,1
392,432	0,1
392,877	0,11
393,322	0,11
393,767	0,11
394,212	0,11
394,656	0,12
395,101	0,12
395,546	0,11
395,99	0,12
396,435	0,12
396,879	0,12
397,324	0,12
397,768	0,12
398,212	0,12
398,657	0,13
399,101	0,14
399,545	0,14
399,989	0,13
400,433	0,13
400,877	0,14
401,321	0,14
401,765	0,13
402,209	0,14
402,653	0,14
403,096	0,14
403,54	0,14
403,984	0,15
404,427	0,15
404,871	0,15
405,314	0,15
405,758	0,14
406,201	0,15
406,644	0,16
407,088	0,16
407,531	0,15
407,974	0,16
408,417	0,15
408,86	0,16
409,303	0,16
409,746	0,16
410,189	0,16
410,632	0,16
411,075	0,17
411,517	0,17
411,96	0,17
412,403	0,17
412,845	0,18
413,288	0,18
413,73	0,18
414,173	0,18
414,615	0,18
415,058	0,19
415,5	0,19
415,942	0,19
416,384	0,2
416,826	0,2
417,268	0,2
417,711	0,21
418,152	0,21
418,594	0,21
419,036	0,22
419,478	0,22
419,92	0,23
420,362	0,23
420,803	0,24
421,245	0,24
421,686	0,23
422,128	0,24
422,569	0,25
423,011	0,26
423,452	0,26
423,893	0,26
424,335	0,27
424,776	0,27
425,217	0,28
425,658	0,28
426,099	0,29
426,54	0,3
426,981	0,3
427,422	0,3
427,863	0,31
428,304	0,31
428,744	0,32
429,185	0,33
429,626	0,33
430,066	0,34
430,507	0,35
430,947	0,36
431,388	0,37
431,828	0,37
432,268	0,37
432,709	0,38
433,149	0,38
433,589	0,39
434,029	0,4
434,469	0,41
434,909	0,41
435,349	0,42
435,789	0,43
436,229	0,44
436,669	0,45
437,108	0,45
437,548	0,47
437,988	0,48
438,427	0,47
438,867	0,48
439,306	0,5
439,746	0,5
440,185	0,51
440,624	0,51
441,064	0,52
441,503	0,52
441,942	0,55
442,381	0,56
442,82	0,56
443,259	0,57
443,698	0,58
444,137	0,6
444,576	0,61
445,015	0,61
445,453	0,62
445,892	0,64
446,331	0,65
446,769	0,66
447,208	0,67
447,646	0,68
448,085	0,69
448,523	0,68
448,961	0,71
449,4	0,72
449,838	0,72
450,276	0,74
450,714	0,75
451,152	0,77
451,59	0,78
452,028	0,79
452,466	0,8
452,904	0,8
453,342	0,82
453,779	0,82
454,217	0,83
454,655	0,85
455,092	0,85
455,53	0,85
455,967	0,88
456,405	0,88
456,842	0,89
457,279	0,9
457,717	0,92
458,154	0,91
458,591	0,94
459,028	0,94
459,465	0,93
459,902	0,96
460,339	0,94
460,776	0,96
461,213	0,98
461,65	1
462,086	0,99
462,523	0,99
462,96	0,98
463,396	1,01
463,833	1,01
464,269	1,03
464,706	1,05
465,142	1,03
465,578	1,03
466,015	1,07
466,451	1,05
466,887	1,05
467,323	1,08
467,759	1,06
468,195	1,07
468,631	1,06
469,067	1,08
469,503	1,05
469,939	1,11
470,374	1,09
470,81	1,09
471,246	1,07
471,681	1,09
472,117	1,1
472,552	1,09
472,988	1,14
473,423	1,12
473,858	1,13
474,294	1,14
474,729	1,15
475,164	1,2
475,599	1,18
476,034	1,17
476,469	1,16
476,904	1,16
477,339	1,19
477,774	1,23
478,208	1,2
478,643	1,18
479,078	1,22
479,512	1,22
479,947	1,23
480,381	1,23
480,816	1,22
481,25	1,24
481,685	1,26
482,119	1,29
482,553	1,26
482,987	1,29
483,421	1,28
483,856	1,27
484,29	1,29
484,724	1,26
485,157	1,28
485,591	1,31
486,025	1,28
486,459	1,3
486,893	1,3
487,326	1,3
487,76	1,33
488,193	1,34
488,627	1,34
489,06	1,32
489,494	1,31
489,927	1,34
490,36	1,33
490,794	1,35
491,227	1,33
491,66	1,33
492,093	1,37
492,526	1,38
492,959	1,36
493,392	1,35
493,825	1,35
494,257	1,37
494,69	1,38
495,123	1,4
495,555	1,41
495,988	1,38
496,421	1,39
496,853	1,4
497,285	1,43
497,718	1,45
498,15	1,4
498,582	1,44
499,015	1,43
499,447	1,44
499,879	1,45
500,311	1,43
500,743	1,42
501,175	1,44
501,607	1,42
502,038	1,46
502,47	1,48
502,902	1,46
503,334	1,46
503,765	1,45
504,197	1,52
504,628	1,45
505,06	1,47
505,491	1,49
505,922	1,47
506,354	1,49
506,785	1,48
507,216	1,52
507,647	1,49
508,078	1,47
508,509	1,5
508,94	1,48
509,371	1,5
509,802	1,5
510,233	1,51
510,664	1,5
511,094	1,55
511,525	1,54
511,955	1,52
512,386	1,51
512,816	1,54
513,247	1,5
513,677	1,51
514,108	1,51
514,538	1,52
514,968	1,54
515,398	1,51
515,828	1,57
516,258	1,46
516,688	1,52
517,118	1,56
517,548	1,5
517,978	1,54
518,408	1,5
518,837	1,52
519,267	1,49
519,697	1,5
520,126	1,52
520,556	1,49
520,985	1,47
521,415	1,48
521,844	1,49
522,273	1,51
522,702	1,49
523,132	1,49
523,561	1,5
523,99	1,47
524,419	1,48
524,848	1,5
525,277	1,47
525,705	1,47
526,134	1,43
526,563	1,44
526,992	1,45
527,42	1,43
527,849	1,42
528,277	1,44
528,706	1,42
529,134	1,41
529,563	1,39
529,991	1,39
530,419	1,4
530,847	1,38
531,275	1,38
531,703	1,36
532,131	1,33
532,559	1,33
532,987	1,34
533,415	1,35
533,843	1,34
534,271	1,33
534,698	1,31
535,126	1,26
535,554	1,27
535,981	1,27
536,409	1,29
536,836	1,23
537,264	1,24
537,691	1,23
538,118	1,21
538,545	1,21
538,972	1,19
539,4	1,17
539,827	1,16
540,254	1,16
540,681	1,13
541,107	1,12
541,534	1,1
541,961	1,09
542,388	1,07
542,814	1,06
543,241	1,06
543,667	1,03
544,094	1,02
544,52	1,02
544,947	0,99
545,373	0,99
545,799	0,98
546,226	0,97
546,652	0,94
547,078	0,93
547,504	0,94
547,93	0,91
548,356	0,91
548,782	0,89
549,208	0,87
549,633	0,87
550,059	0,85
550,485	0,82
550,91	0,81
551,336	0,8
551,761	0,79
552,187	0,78
552,612	0,77
553,038	0,74
553,463	0,74
553,888	0,73
554,313	0,71
554,738	0,7
555,163	0,69
555,588	0,68
556,013	0,66
556,438	0,65
556,863	0,64
557,288	0,63
557,713	0,62
558,137	0,61
558,562	0,59
558,986	0,58
559,411	0,58
559,835	0,56
560,26	0,55
560,684	0,54
561,108	0,52
561,533	0,52
561,957	0,51
562,381	0,5
562,805	0,49
563,229	0,48
563,653	0,47
564,077	0,46
564,501	0,45
564,925	0,44
565,348	0,43
565,772	0,42
566,196	0,41
566,619	0,41
567,043	0,4
567,466	0,39
567,89	0,38
568,313	0,37
568,736	0,36
569,159	0,35
569,583	0,35
570,006	0,34
570,429	0,33
570,852	0,33
571,275	0,32
571,698	0,32
572,12	0,31
572,543	0,3
572,966	0,3
573,389	0,29
573,811	0,28
574,234	0,28
574,656	0,27
575,079	0,26
575,501	0,26
575,924	0,26
576,346	0,25
576,768	0,24
577,19	0,24
577,612	0,24
578,034	0,24
578,456	0,23
578,878	0,23
579,3	0,23
579,722	0,21
580,144	0,21
580,566	0,21
580,987	0,21
581,409	0,2
581,83	0,2
582,252	0,2
582,673	0,2
583,095	0,19
583,516	0,19
583,937	0,18
584,359	0,18
584,78	0,17
585,201	0,17
585,622	0,17
586,043	0,17
586,464	0,17
586,885	0,17
587,306	0,17
587,726	0,16
588,147	0,16
588,568	0,16
588,988	0,15
589,409	0,15
589,83	0,15
590,25	0,15
590,67	0,15
591,091	0,15
591,511	0,14
591,931	0,14
592,351	0,14
592,771	0,14
593,192	0,14
593,612	0,14
594,031	0,14
594,451	0,14
594,871	0,14
595,291	0,13
595,711	0,13
596,13	0,13
596,55	0,13
596,969	0,13
597,389	0,13
597,808	0,13
598,228	0,13
598,647	0,13
599,066	0,13
599,486	0,13
599,905	0,13
600,324	0,13
600,743	0,13
601,162	0,13
601,581	0,13
602	0,12
602,418	0,12
602,837	0,12
603,256	0,12
603,674	0,12
604,093	0,12
604,512	0,12
604,93	0,12
605,349	0,12
605,767	0,12
606,185	0,11
606,603	0,12
607,022	0,12
607,44	0,11
607,858	0,11
608,276	0,11
608,694	0,11
609,112	0,11
609,53	0,1
609,947	0,11
610,365	0,1
610,783	0,11
611,2	0,11
611,618	0,11
612,036	0,1
612,453	0,11
612,87	0,11
613,288	0,11
613,705	0,11
614,122	0,11
614,539	0,11
614,957	0,11
615,374	0,1
615,791	0,11
616,208	0,1
616,624	0,1
617,041	0,11
617,458	0,1
617,875	0,1
618,291	0,1
618,708	0,1
619,125	0,1
619,541	0,1
619,958	0,1
620,374	0,1
620,79	0,1
621,206	0,1
621,623	0,1
622,039	0,09
622,455	0,1
622,871	0,1
623,287	0,1
623,703	0,1
624,119	0,1
624,535	0,09
624,95	0,1
625,366	0,1
625,782	0,1
626,197	0,09
626,613	0,1
627,028	0,1
627,444	0,1
627,859	0,09
628,274	0,09
628,69	0,09
629,105	0,09
629,52	0,09
629,935	0,1
630,35	0,1
630,765	0,09
631,18	0,09
631,595	0,09
632,009	0,09
632,424	0,09
632,839	0,09
633,253	0,09
633,668	0,09
634,082	0,09
634,497	0,09
634,911	0,09
635,326	0,09
635,74	0,09
636,154	0,09
636,568	0,09
636,982	0,09
637,396	0,09
637,81	0,09
638,224	0,09
638,638	0,09
639,052	0,09
639,466	0,09
639,879	0,09
640,293	0,09
640,707	0,09
641,12	0,09
641,534	0,09
641,947	0,09
642,36	0,08
642,774	0,08
643,187	0,08
643,6	0,09
644,013	0,08
644,426	0,08
644,839	0,08
645,252	0,08
645,665	0,08
646,078	0,08
646,491	0,08
646,904	0,08
647,316	0,08
647,729	0,08
648,141	0,08
648,554	0,08
648,966	0,08
649,379	0,08
649,791	0,08
650,203	0,08
650,615	0,08
651,028	0,08
651,44	0,07
651,852	0,08
652,264	0,08
652,676	0,07
653,087	0,08
653,499	0,07
653,911	0,08
654,323	0,08
654,734	0,07
655,146	0,07
655,557	0,07
655,969	0,07
656,38	0,08
656,792	0,09
657,203	0,09
657,614	0,08
658,025	0,07
658,436	0,07
658,847	0,07
659,258	0,07
659,669	0,06
660,08	0,06
660,491	0,06
660,902	0,07
661,312	0,06
661,723	0,07
662,134	0,06
662,544	0,06
662,955	0,06
663,365	0,06
663,775	0,06
664,186	0,06
664,596	0,06
665,006	0,06
665,416	0,06
665,826	0,06
666,236	0,06
666,646	0,06
667,056	0,06
667,466	0,06
667,876	0,06
668,286	0,06
668,695	0,06
669,105	0,05
669,514	0,05
669,924	0,05
670,333	0,06
670,743	0,05
671,152	0,05
671,561	0,05
671,97	0,05
672,38	0,05
672,789	0,05
673,198	0,05
673,607	0,05
674,016	0,05
674,424	0,05
674,833	0,05
675,242	0,05
675,651	0,05
676,059	0,05
676,468	0,04
676,876	0,05
677,285	0,05
677,693	0,04
678,101	0,04
678,51	0,04
678,918	0,04
679,326	0,04
679,734	0,04
680,142	0,04
680,55	0,04
680,958	0,04
681,366	0,04
681,774	0,04
682,181	0,04
682,589	0,04
682,997	0,04
683,404	0,04
683,812	0,04
684,219	0,04
684,627	0,04
685,034	0,03
685,441	0,04
685,848	0,04
686,256	0,04
686,663	0,03
687,07	0,03
687,477	0,03
687,884	0,03
688,29	0,03
688,697	0,03
689,104	0,03
689,511	0,03
689,917	0,03
690,324	0,03
690,73	0,03
691,137	0,03
691,543	0,03
691,95	0,03
692,356	0,03
692,762	0,03
693,168	0,02
693,574	0,02
693,98	0,03
694,386	0,02
694,792	0,02
695,198	0,02
695,604	0,02
696,01	0,02
696,415	0,02
696,821	0,02
697,227	0,02
697,632	0,02
698,038	0,02
698,443	0,02
698,848	0,02
699,254	0,02
699,659	0,02
700,064	0,02
700,469	0,02
700,874	0,02
701,279	0,02
701,684	0,01
702,089	0,02
702,494	0,02
702,898	0,02
703,303	0,02
703,708	0,02
704,112	0,01
704,517	0,01
704,921	0,01
705,326	0,01
705,73	0,01
706,134	0,01
706,538	0,01
706,943	0,01
707,347	0,01
707,751	0,01
708,155	0,01
708,559	0,01
708,963	0,01
709,366	0,01
709,77	0,01
710,174	0,01
710,577	0,01
710,981	0,01
711,384	0,01
711,788	0,01
712,191	0,01
712,595	0,01
712,998	0,01
713,401	0,01
713,804	0,01
714,207	0,01
714,61	0,01
715,013	0,01
715,416	0,01
715,819	0,01
716,222	0
716,625	0
717,027	0,01
717,43	0
717,833	0
718,235	0
718,638	0
719,04	0
719,442	0
719,844	0
720,247	0
720,649	0
721,051	0
721,453	0
721,855	0
722,257	0
722,659	0
723,06	-0
723,462	0
723,864	0
724,265	-0
724,667	-0
725,069	-0
725,47	0
725,871	-0
726,273	-0
726,674	-0
727,075	0
727,476	-0
727,877	-0
728,278	-0
728,679	-0
729,08	-0
729,481	-0
729,882	-0
730,282	-0
730,683	-0
731,084	-0
731,484	0
731,885	-0
732,285	-0
732,686	-0
733,086	-0
733,486	-0
733,886	-0
734,286	-0
734,686	-0
735,086	-0,01
735,486	-0
735,886	-0
736,286	-0
736,686	-0
737,086	-0
737,485	-0
737,885	-0
738,284	-0
738,684	-0,01
739,083	-0
739,482	-0
739,882	-0
740,281	-0
740,68	-0
741,079	-0
741,478	-0,01
741,877	-0,01
742,276	-0,01
742,675	-0
743,074	-0
743,473	-0
743,871	-0,01
744,27	-0
744,668	-0,01
745,067	-0,01
745,465	-0
745,864	-0
746,262	-0,01
746,66	-0
747,059	-0,01
747,457	-0
747,855	-0,01
748,253	-0,01
748,651	-0,01
749,049	-0,01
749,447	-0,01
749,844	-0,01
750,242	-0,01
750,64	-0
751,037	-0,01
751,435	-0,01
751,832	-0,01
752,23	-0,01
752,627	-0,01
753,024	-0,01
753,422	-0,01
753,819	-0,01
754,216	-0,01
754,613	-0,01
755,01	-0,01
755,407	-0,01
755,804	-0,01
756,201	-0,01
756,597	-0,01
756,994	-0,01
757,391	-0,01
757,787	-0,01
758,184	-0
758,58	-0,01
758,977	0
759,373	-0
759,769	-0
760,166	-0,01
760,562	-0
760,958	-0
761,354	-0
761,75	-0,01
762,146	0
762,542	-0,01
762,937	-0,01
763,333	-0,01
763,729	-0,01
764,124	-0,01
764,52	-0
764,915	-0
765,311	-0
765,706	-0
766,101	-0
766,497	-0
766,892	-0
767,287	-0
767,682	-0,01
768,077	-0,01
768,472	-0
768,867	-0,01
769,262	-0
769,657	-0
770,051	-0
770,446	-0
770,84	-0,01
771,235	-0
771,629	-0,01
772,024	-0
772,418	-0
772,812	-0,01
773,207	-0
773,601	-0
773,995	-0
774,389	-0
774,783	-0,01
775,177	-0
775,571	-0
775,964	-0
776,358	-0
776,752	-0
777,145	-0
777,539	-0,01
777,932	-0
778,326	-0
778,719	-0
779,113	-0
779,506	0
779,899	-0
780,292	-0
780,685	-0
781,078	-0
781,471	-0
781,864	-0
782,257	0
782,65	-0
783,042	-0
783,435	0
783,827	-0
784,22	-0
784,612	-0
785,005	0,01
785,397	0
785,789	-0
786,182	0
786,574	-0
786,966	-0
787,358	0
787,75	0
788,142	0
788,534	0
788,925	0
789,317	0
789,709	0
790,1	0
790,492	0
790,883	-0
791,275	0
791,666	0
792,057	0,01
792,449	0
792,84	0,01
793,231	0
793,622	0
794,013	0
794,404	0
794,795	0
795,185	0,01
795,576	0
795,967	0,01
796,357	0,01
796,748	0,01
797,138	0
797,529	0,01
797,919	0
798,31	0
798,7	0
799,09	0
799,48	0,01
799,87	0,01
800,26	0
800,65	0,01
801,04	0,01
801,43	0,01
801,82	0,01
802,209	0,01
802,599	0,01
802,988	0,01
803,378	0,01
803,767	0,01
804,157	0,01
804,546	0,01
804,935	0,01
805,325	0,01
805,714	0,01
806,103	0,01
806,492	0,01
806,881	0,01
807,27	0,02
807,658	0,02
808,047	0,01
808,436	0
808,824	0,01
809,213	0,01
809,602	0,02
809,99	0,01
810,378	0,01
810,767	0,01
811,155	0,02
811,543	0,01
811,931	0,01
812,319	0,01
812,708	0,02
813,095	0,02
813,483	0,02
813,871	0,01
814,259	0,02
814,647	0,01
815,034	0,02
815,422	0,02
815,809	0,02
816,197	0,02
816,584	0,02
816,972	0,02
817,359	0,02
817,746	0,01
818,133	0,02
818,52	0,02
818,907	0,02
819,294	0,02
819,681	0,01
820,068	0,02
820,455	0,02
820,842	0,02
821,228	0,02
821,615	0,02
822,002	0,02
822,388	0,02
822,774	0,02
823,161	0,02
823,547	0,02
823,933	0,02
824,319	0,02
824,706	0,02
825,092	0,02
825,478	0,02
825,863	0,02
826,249	0,03
826,635	0,02
827,021	0,02
827,407	0,02
827,792	0,03
828,178	0,02
828,563	0,03
828,949	0,03
829,334	0,02
829,719	0,02
830,104	0,02
830,49	0,03
830,875	0,03
831,26	0,03
831,645	0,02
832,03	0,02
832,415	0,03
832,799	0,03
833,184	0,03
833,569	0,03
833,953	0,03
834,338	0,03
834,722	0,03
835,107	0,03
835,491	0,03
835,875	0,03
836,26	0,03
836,644	0,03
837,028	0,02
837,412	0,03
837,796	0,03
838,18	0,03
838,564	0,03
838,948	0,03
839,331	0,03
839,715	0,03
840,099	0,03
840,482	0,03
840,866	0,03
841,249	0,03
841,632	0,03
842,016	0,03
842,399	0,03
842,782	0,03
843,165	0,03
843,548	0,03
843,931	0,04
844,314	0,03
844,697	0,04
845,08	0,04
845,463	0,03
845,845	0,03
846,228	0,03
846,61	0,03
846,993	0,04
847,375	0,03
847,758	0,03
848,14	0,03
848,522	0,03
848,904	0,03
849,286	0,03
849,668	0,04
850,05	0,04
850,432	0,03
850,814	0,04
851,196	0,04
851,578	0,04
851,959	0,04
852,341	0,04
852,722	0,04
853,104	0,04
853,485	0,04
853,867	0,04
854,248	0,04
854,629	0,03
855,01	0,04
855,391	0,03
855,773	0,04
856,153	0,04
856,534	0,04
856,915	0,04
857,296	0,04
857,677	0,04
858,057	0,04
858,438	0,04
858,819	0,04
859,199	0,03
859,579	0,04
859,96	0,04
860,34	0,04
860,72	0,04
861,1	0,04
861,48	0,04
861,86	0,04
862,24	0,04
862,62	0,04
863	0,04
863,38	0,04
863,76	0,04
864,139	0,04
864,519	0,04
864,898	0,04
865,278	0,04
865,657	0,04
866,037	0,04
866,416	0,04
866,795	0,04
867,174	0,04
867,553	0,04
867,932	0,04
868,311	0,04
868,69	0,04
869,069	0,04
869,448	0,04
869,826	0,04
870,205	0,04
870,584	0,04
870,962	0,04
871,341	0,04
871,719	0,04
872,097	0,04
872,475	0,04
872,854	0,04
873,232	0,04
873,61	0,04
873,988	0,04
874,366	0,04
874,744	0,04
875,121	0,04
875,499	0,04
875,877	0,05
876,255	0,04
876,632	0,04
877,01	0,04
877,387	0,03
877,764	0,04
878,142	0,05
878,519	0,04
878,896	0,04
879,273	0,04
879,65	0,04
880,027	0,04
880,404	0,04
880,781	0,05
881,158	0,04
881,534	0,03
881,911	0,04
882,288	0,04
882,664	0,04
883,041	0,04
883,417	0,04
883,793	0,04
884,17	0,04
884,546	0,04
884,922	0,05
885,298	0,04
885,674	0,04
886,05	0,04
886,426	0,05
886,802	0,05
887,178	0,05
887,553	0,05
887,929	0,04
888,305	0,04
888,68	0,04
889,056	0,04
889,431	0,05
889,806	0,05
890,182	0,05
890,557	0,04
890,932	0,04
891,307	0,04
891,682	0,04
892,057	0,04
892,432	0,04
892,807	0,05
893,181	0,04
893,556	0,04
893,931	0,04
894,305	0,04
894,68	0,04
895,054	0,04
895,428	0,04
895,803	0,04
896,177	0,04
896,551	0,04
896,925	0,04
897,299	0,03
897,673	0,03
898,047	0,04
898,421	0,04
898,795	0,04
899,169	0,04
899,542	0,03
899,916	0,04
900,289	0,04
900,663	0,04
901,036	0,03
901,41	0,04
901,783	0,04
902,156	0,04
902,529	0,04
902,902	0,04
903,275	0,04
903,648	0,04
904,021	0,04
904,394	0,04
904,767	0,04
905,139	0,05
905,512	0,05
905,885	0,05
906,257	0,04
906,629	0,04
907,002	0,05
907,374	0,04
907,746	0,05
908,119	0,04
908,491	0,04
908,863	0,05
909,235	0,05
909,607	0,05
909,978	0,05
910,35	0,05
910,722	0,05
911,094	0,05
911,465	0,04
911,837	0,05
912,208	0,06
912,58	0,06
912,951	0,05
913,322	0,06
913,693	0,06
914,065	0,06
914,436	0,06
914,807	0,06
915,178	0,05
915,548	0,06
915,919	0,06
916,29	0,06
916,661	0,06
917,031	0,07
917,402	0,07
917,772	0,06
918,143	0,07
918,513	0,06
918,884	0,07
919,254	0,06
919,624	0,07
919,994	0,07
920,364	0,07
920,734	0,07
921,104	0,07
921,474	0,06
921,844	0,07
922,213	0,06
922,583	0,07
922,953	0,07
923,322	0,07
923,692	0,08
924,061	0,07
924,43	0,07
924,8	0,08
925,169	0,07
925,538	0,07
925,907	0,08
926,276	0,08
926,645	0,08
927,014	0,09
927,383	0,09
927,751	0,09
928,12	0,09
928,489	0,08
928,857	0,09
929,226	0,09
929,594	0,09
929,962	0,09
930,331	0,09
930,699	0,08
931,067	0,09
931,435	0,1
931,803	0,09
932,171	0,09
932,539	0,1
932,907	0,1
933,275	0,1
933,642	0,09
934,01	0,1
934,378	0,1
934,745	0,11
935,113	0,1
935,48	0,1
935,847	0,1
936,215	0,1
936,582	0,1
936,949	0,1
937,316	0,11
937,683	0,12
938,05	0,1
938,417	0,12
938,783	0,11
939,15	0,12
939,517	0,11
939,883	0,12
940,25	0,11
940,616	0,12
940,983	0,1
941,349	0,11
941,715	0,13
942,082	0,11
942,448	0,13
942,814	0,12
943,18	0,12
943,546	0,13
943,912	0,12
944,277	0,13
944,643	0,12
945,009	0,13
945,374	0,12
945,74	0,14
946,105	0,14
946,471	0,14
946,836	0,13
947,202	0,12
947,567	0,14
947,932	0,13
948,297	0,14
948,662	0,13
949,027	0,12
949,392	0,14
949,757	0,14
950,121	0,13
950,486	0,13
950,851	0,13
951,215	0,14
951,58	0,15
951,944	0,14
952,309	0,13
952,673	0,14
953,037	0,14
953,401	0,14
953,765	0,14
954,129	0,15
954,493	0,14
954,857	0,14
955,221	0,13
955,585	0,14
955,949	0,14
956,312	0,15
956,676	0,15
957,039	0,15
957,403	0,16
957,766	0,15
958,13	0,16
958,493	0,17
958,856	0,17
959,219	0,15
959,582	0,15
959,945	0,14
960,308	0,14
960,671	0,17
961,034	0,16
961,396	0,14
961,759	0,15
962,122	0,14
962,484	0,13
962,847	0,15
963,209	0,15
963,571	0,14
963,934	0,12
964,296	0,17
964,658	0,14
965,02	0,14
965,382	0,13
965,744	0,16
966,106	0,14
966,468	0,15
966,829	0,16
967,191	0,14
967,553	0,17
967,914	0,16
968,276	0,15
968,637	0,17
968,998	0,15
969,36	0,17
969,721	0,19
970,082	0,13
970,443	0,17
970,804	0,13
971,165	0,13
971,526	0,12
971,887	0,15
972,247	0,13
972,608	0,15
972,969	0,19
973,329	0,18
973,69	0,15
974,05	0,15
974,41	0,16
974,771	0,14
975,131	0,13
975,491	0,16
975,851	0,17
976,211	0,12
976,571	0,15
976,931	0,14
977,291	0,17
977,65	0,16
978,01	0,15
978,37	0,14
978,729	0,18
979,089	0,12
979,448	0,16
979,807	0,12
980,167	0,14
980,526	0,13
980,885	0,15
981,244	0,2
981,603	0,13
981,962	0,17
982,321	0,1
982,68	0,15
983,038	0,2
983,397	0,15
983,756	0,12
984,114	0,15
984,473	0,15
984,831	0,13
985,19	0,13
985,548	0,18
985,906	0,14
986,264	0,14
986,622	0,11
986,98	0,16
987,338	0,14
987,696	0,11
988,054	0,06
988,412	0,16
988,769	0,13
989,127	0,14
989,484	0,13
989,842	0,16
990,199	0,19
990,557	0,12
990,914	0,2
991,271	0,18
991,628	0,06
991,985	0,14
992,342	0,1
992,699	0,17
993,056	0,09
993,413	0,13
993,77	0,11
994,126	0,11
994,483	0,15
994,84	0,12
995,196	0,1
995,552	0,14
995,909	0,16
996,265	0,08
996,621	0,11
996,977	0,17
997,333	0,07
997,689	0,13
998,045	0,14
998,401	0,19
998,757	0,17
999,113	0,13
999,468	0,12
999,824	0,09
1000,18	0,1
1000,535	0,13
1000,89	0,1
1001,246	0,1
1001,601	0,1
1001,956	0,16
1002,311	0,16
1002,666	0,14
1003,021	0,11
1003,376	0,1
1003,731	0,16
1004,086	0,12
1004,441	0,07
1004,795	0,11
1005,15	0,16
1005,505	0,03
1005,859	0,09
1006,213	0,21
1006,568	0,12
1006,922	0,1
1007,276	0,06
1007,63	0,06
1007,984	0,07
1008,338	0,11
1008,692	0
1009,046	0,15
1009,4	0,14
1009,754	0,14
1010,107	0,15
1010,461	0,17
1010,814	0,13
1011,168	0,07
1011,521	0,11
1011,874	0,14
1012,228	0,12
1012,581	0,15
1012,934	0,16
1013,287	0,17
1013,64	0,11
1013,993	0,13
1014,346	0,2
1014,699	0,24
1015,051	0,06
1015,404	0,09
1015,756	-0
1016,109	0,13
1016,461	0,11
1016,814	0,14
1017,166	0,07
1017,518	0,09
1017,87	0,09
1018,223	0,09
1018,575	0,01
1018,927	0,06
1019,278	0,21
1019,63	0,2
1019,982	0,1
1020,334	0,13
1020,685	0,17
1021,037	0,15
1021,388	0,11
1021,74	0,13
1022,091	0,13
1022,442	0,04
1022,794	0,1
1023,145	0,07
1023,496	0,06
1023,847	0,11
1024,198	0,18
1024,549	0,11
1024,9	0,09
1025,25	0,23
1025,601	0,06
1025,952	0,05
1026,302	0,1
1026,653	0,03
1027,003	0,15
1027,353	0,2
1027,704	0,06
1028,054	0,09
1028,404	0,04
1028,754	0,2
1029,104	0,16
1029,454	-0,04
1029,804	0,01
1030,154	0,12
1030,503	0,12
1030,853	0,12
